time,open,close,high,low,volume,Unnamed: 0
1628623140000,0.14508,0.14508,0.14508,0.14508,1343.16631,
1628623200000,0.14447,0.14447,0.14447,0.14447,1.06955213,
1628623740000,0.14451,0.14451,0.14451,0.14451,0.00110291,
1628623800000,0.1445,0.1445,0.1445,0.1445,0.0704112,
1628623860000,0.1445,0.1445,0.1445,0.1445,0.41541762,
1628624340000,0.14509,0.1445,0.14509,0.1445,8.13600928,
1628624880000,0.14508,0.14508,0.14508,0.14508,0.00104122,
1628624940000,0.14447,0.14447,0.14447,0.14447,0.00125246,
1628625000000,0.14447,0.14447,0.14447,0.14447,1.01674008,
1628625480000,0.14508,0.14508,0.14508,0.14508,0.00107173,
1628625600000,0.14448,0.14448,0.14448,0.14448,1.06955213,
1628625660000,0.14448,0.14448,0.14448,0.14448,0.13849171,
1628626200000,0.14447,0.14447,0.14508,0.14447,8.27689196,
1628626740000,0.1445,0.1445,0.1445,0.1445,0.41667579,
1628626800000,0.14447,0.14447,0.14447,0.14447,0.05281205,
1628626860000,0.14447,0.14447,0.14447,0.14447,7778.60227878,
1628626920000,0.1444,0.1444,0.1444,0.1444,14850.09768922,
1628627520000,0.1448,0.1448,0.1448,0.1448,0.00107782,
1628627640000,0.14428,0.14428,0.14428,0.14428,5.53010559,
1628628180000,0.1448,0.1448,0.1448,0.1448,0.00115236,
1628628240000,0.1445,0.1445,0.1445,0.1445,0.00104924,
1628628300000,0.1445,0.1445,0.1445,0.1445,0.38779842,
1628628360000,0.1445,0.1445,0.1445,0.1445,3.05040769,
1628628720000,0.1445,0.14455,0.14455,0.1445,14387.94584465,
1628628840000,0.14428,0.14428,0.14428,0.14428,0.69197953,
1628628900000,0.14428,0.14428,0.14428,0.14428,8516.72467047,
1628628960000,0.14412,0.14412,0.14412,0.14412,17313.7,
1628629080000,0.14397,0.14397,0.14397,0.14397,10273.48089,
1628629680000,0.1443,0.14362,0.1443,0.14362,0.0024704,
1628630280000,0.1443,0.1443,0.1443,0.1443,0.00105074,
1628630400000,0.14369,0.14366,0.14369,0.14366,1001.20582699,
1628630520000,0.14368,0.14368,0.14368,0.14368,0.56042615,
1628630640000,0.14369,0.14369,0.14369,0.14369,0.28009607,
1628630700000,0.14414,0.14415,0.14415,0.14414,6500.0,
1628630760000,0.14424,0.14369,0.14424,0.14369,7.99303222,
1628631360000,0.14384,0.14384,0.14384,0.14384,0.00124228,
1628631420000,0.14336,0.14336,0.14336,0.14336,2.09794562,
1628631780000,0.14362,0.14359,0.14362,0.14359,8250.79519298,
1628631840000,0.14359,0.14359,0.14359,0.14359,0.46407458,
1628632200000,0.14359,0.14359,0.14359,0.14359,8302.67873244,
1628632560000,0.14388,0.14334,0.14389,0.14334,19263.6167834,
1628633160000,0.14395,0.14395,0.14395,0.14395,0.00123321,
1628633220000,0.14336,0.14336,0.14336,0.14336,9.63238814,
1628633760000,0.14395,0.14395,0.14395,0.14395,0.00124638,
1628633820000,0.14336,0.14336,0.14336,0.14336,0.00129848,
1628634240000,0.14339,0.14339,0.14339,0.14339,1297.4,
1628634300000,0.14334,0.14334,0.14334,0.14334,0.05363296,
1628634480000,0.14395,0.14395,0.14395,0.14395,501.14,
1628634540000,0.14338,0.14338,0.14338,0.14338,1.08644591,
1628634780000,0.14357,0.14338,0.14357,0.14338,7.84183829,
1628635380000,0.14395,0.14349,0.14395,0.14349,7.98559542,
1628635440000,0.1433,0.1433,0.1433,0.1433,0.19648971,
1628635860000,0.14366,0.14367,0.14367,0.14366,11549.66421087,
1628635920000,0.14311,0.14311,0.14311,0.14311,5.19515643,
1628636220000,0.14369,0.145,0.145,0.14369,71093.43225065,
1628636280000,0.1447,0.1447,0.1447,0.1447,18.45553903,
1628636340000,0.1447,0.1447,0.1447,0.1447,2.82173324,
1628636880000,0.1447,0.1447,0.1447,0.1447,0.00107825,
1628637420000,0.14537,0.1447,0.14537,0.1447,0.00244991,
1628638020000,0.1447,0.1447,0.1447,0.1447,0.00101126,
1628638560000,0.14424,0.14342,0.14424,0.14342,0.0022560699999999,
1628639100000,0.14425,0.14425,0.14425,0.14425,0.00129378,
1628639220000,0.14358,0.14358,0.14358,0.14358,13.07181103,
1628639820000,0.14424,0.14424,0.14424,0.14424,0.00119032,
1628639880000,0.14367,0.14367,0.14367,0.14367,1.42263822,
1628640420000,0.14427,0.14427,0.14427,0.14427,0.00106476,
1628640540000,0.14368,0.14368,0.14368,0.14368,1.20385417,
1628641080000,0.14427,0.14427,0.14427,0.14427,0.00117489,
1628641140000,0.14368,0.14368,0.14368,0.14368,1.04601281,
1628641680000,0.14427,0.14368,0.14427,0.14368,1.04708247,
1628642220000,0.14369,0.14369,0.14369,0.14369,0.00121679,
1628642460000,0.14368,0.14368,0.14368,0.14368,0.14001879,
1628642640000,0.14368,0.14368,0.14368,0.14368,20.0,
1628643180000,0.14427,0.14371,0.14427,0.14371,8.229115720000001,
1628643240000,0.14371,0.14371,0.14371,0.14371,4890.33558181,
1628643780000,0.14427,0.14427,0.14427,0.14427,0.00115106,
1628643840000,0.14368,0.14368,0.14368,0.14368,0.00103857,
1628644320000,0.14427,0.14427,0.14427,0.14427,0.00106342,
1628644380000,0.14369,0.14369,0.14369,0.14369,1.04601281,
1628644920000,0.14428,0.14428,0.14428,0.14428,0.00108543,
1628645040000,0.14369,0.14368,0.14369,0.14368,9.38955363,
1628645520000,0.14368,0.14354,0.14368,0.1426,51261.75103668,
1628646120000,0.14391,0.14391,0.14391,0.14391,0.00120461,
1628646180000,0.14335,0.14335,0.14335,0.14335,0.6582565,
1628646720000,0.14392,0.14392,0.14392,0.14392,0.00124938,
1628646780000,0.14349,0.14349,0.14349,0.14349,0.00124636,
1628646840000,0.14349,0.14349,0.14349,0.14349,2.24560991,
1628647320000,0.14392,0.14392,0.14392,0.14392,143.18522592,
1628647380000,0.14349,0.14349,0.14349,0.14349,0.76521419,
1628647920000,0.14392,0.14392,0.14392,0.14392,0.0011819,
1628648160000,0.14349,0.14349,0.14349,0.14349,0.76521419,
1628648700000,0.14391,0.14391,0.14391,0.14391,0.00107868,
1628648820000,0.14349,0.14349,0.14349,0.14349,5.96314413,
1628649300000,0.14391,0.14349,0.14391,0.14349,0.74976001,
1628649900000,0.14391,0.14349,0.14391,0.14349,5.96419057,
1628650440000,0.14392,0.14349,0.14392,0.14349,6.10593862,
1628650980000,0.14392,0.14392,0.14392,0.14392,0.00101429,
1628651100000,0.1438,0.14388,0.14388,0.1438,6.65682595,
1628651220000,0.14388,0.14388,0.14388,0.14388,0.14209802,
1628651760000,0.14392,0.14392,0.14392,0.14392,7723.32397399,
1628651880000,0.14378,0.14378,0.14378,0.14378,0.56633974,
1628652420000,0.1445,0.1445,0.1445,0.1445,0.00105649,
1628652480000,0.14387,0.14387,0.14387,0.14387,1.27661075,
1628652540000,0.14387,0.14387,0.14387,0.14387,0.15989362,
1628653020000,0.1445,0.14387,0.1445,0.14387,1.11480013,
1628653500000,0.1445,0.1445,0.1445,0.1445,0.00100908,
1628653560000,0.14387,0.14387,0.14387,0.14387,0.00108344,
1628653680000,0.14387,0.14385,0.14387,0.14385,17315.9,
1628653980000,0.14324,0.14324,0.14324,0.14324,11634.21005,
1628654520000,0.14313,0.14342,0.14342,0.14313,19817.03670112,
1628654580000,0.14303,0.14303,0.14303,0.14303,0.32199996,
1628654760000,0.14303,0.14366,0.14366,0.14303,332.534497,
1628654820000,0.14273,0.14273,0.14273,0.14273,1.126769,
1628654880000,0.14333,0.14333,0.14333,0.14333,118.532182,
1628655000000,0.14273,0.14273,0.14273,0.14273,8.59879328,
1628655600000,0.14281,0.14281,0.14281,0.14281,0.00122595,
1628655660000,0.14211,0.14211,0.14211,0.14211,1.15068043,
1628656200000,0.14312,0.14312,0.14312,0.14312,0.0010278,
1628656260000,0.14263,0.14263,0.14263,0.14263,0.00124271,
1628656320000,0.14263,0.14263,0.14263,0.14263,7.52153441,
1628656500000,0.14263,0.14263,0.14263,0.14263,0.94281214,
1628657040000,0.14313,0.14263,0.14313,0.14263,7.18199364,
1628657520000,0.14328,0.14329,0.14329,0.14328,11942.27998789,
1628657580000,0.143,0.143,0.143,0.143,9.4679465,
1628657760000,0.143,0.143,0.143,0.143,0.6666719,
1628658360000,0.14364,0.14364,0.14364,0.14364,0.00107875,
1628658420000,0.143,0.143,0.143,0.143,1.14505377,
1628658960000,0.143,0.1436,0.1436,0.143,0.00248171,
1628659020000,0.143,0.143,0.143,0.143,8.56642067,
1628659560000,0.14312,0.14312,0.14312,0.14312,0.001175,
1628659620000,0.14248,0.14248,0.14248,0.14248,0.21547764,
1628660160000,0.14312,0.14312,0.14312,0.14312,0.00114536,
1628660220000,0.14248,0.14248,0.14248,0.14248,1.15340833,
1628660760000,0.14313,0.14313,0.14313,0.14313,0.00117557,
1628660820000,0.14249,0.14249,0.14249,0.14249,9.34474389,
1628660880000,0.14248,0.14248,0.14248,0.14248,0.01810169,
1628661420000,0.14312,0.14248,0.14312,0.14248,0.00217426,
1628662020000,0.14312,0.14248,0.14312,0.14248,0.00216796,
1628662560000,0.14312,0.14312,0.14312,0.14312,0.00116934,
1628662620000,0.14257,0.14257,0.14257,0.14257,9.20162149,
1628662680000,0.14257,0.14257,0.14257,0.14257,0.16282377,
1628663160000,0.14312,0.14312,0.14312,0.14312,0.00116293,
1628663280000,0.14257,0.14257,0.14257,0.14257,7.90265162,
1628663460000,0.14312,0.14312,0.14312,0.14312,0.001,
1628663580000,0.14257,0.14257,0.14257,0.14257,0.99058456,
1628663700000,0.14257,0.14081,0.14257,0.14,88686.451566,
1628663940000,0.1401,0.1401,0.1401,0.1401,0.29689582,
1628664120000,0.14,0.1401,0.1401,0.14,62766.5000656,
1628664180000,0.1401,0.1401,0.1401,0.1401,0.003,
1628664240000,0.14005,0.14,0.14005,0.14,62767.98552171,
1628664300000,0.14001,0.14,0.14001,0.14,499.999,
1628664360000,0.14047,0.14047,0.14047,0.14047,0.001,
1628664420000,0.14002,0.14055,0.14055,0.14002,36494.40975304,
1628664480000,0.14014,0.14014,0.14014,0.14014,1.02721451,
1628664720000,0.14077,0.14045,0.14101,0.14045,16701.61794804,
1628664780000,0.14075,0.14075,0.14075,0.14075,21.0,
1628664960000,0.14011,0.14011,0.14011,0.14011,9.1968343,
1628665320000,0.14005,0.13935,0.14005,0.13935,57148.09528666,
1628665620000,0.13851,0.13851,0.13851,0.13851,0.001,
1628665680000,0.13855,0.13855,0.13855,0.13855,0.001,
1628665740000,0.1385,0.1385,0.1385,0.1385,4399.93699,
1628665800000,0.13837,0.13837,0.13837,0.13837,0.001,
1628665980000,0.13837,0.13837,0.13837,0.13837,3328.537894,
1628666100000,0.1388,0.13741,0.1388,0.13741,40001.401000000005,
1628666220000,0.13668,0.13667,0.13696,0.13667,270.71154,
1628666280000,0.1367,0.13695,0.13695,0.13629,18952.649154,
1628666340000,0.13618,0.13618,0.13618,0.13618,0.001,
1628666400000,0.13618,0.13631,0.13631,0.13618,4.290590160000001,
1628666460000,0.13618,0.13618,0.13618,0.13618,0.001,
1628666580000,0.13626,0.13626,0.13626,0.13626,0.001,
1628666640000,0.13626,0.13626,0.13626,0.13626,1.28211599,
1628666700000,0.13627,0.13648,0.13648,0.13627,47.238994000000005,
1628666760000,0.1363,0.1363,0.1363,0.1363,3.51806877,
1628666820000,0.13632,0.13632,0.13632,0.13632,0.07915039,
1628666880000,0.13633,0.13633,0.13633,0.13633,0.04155778,
1628666940000,0.1364,0.1364,0.1364,0.1364,15148.81176,
1628667060000,0.13544,0.13543,0.13544,0.13543,18530.6,
1628667300000,0.13531,0.13573,0.13573,0.13531,36755.9,
1628667360000,0.135,0.135,0.135,0.135,4.85343894,
1628667420000,0.135,0.135,0.135,0.135,28.44656106,
1628667540000,0.13486,0.13486,0.13486,0.13486,17102.7528,
1628667600000,0.13481,0.13432,0.13481,0.13431,1000.002,
1628667660000,0.1345,0.1345,0.1345,0.1345,0.001,
1628667720000,0.1346,0.1346,0.1346,0.1346,0.001,
1628667840000,0.13433,0.13433,0.13433,0.13433,0.20299717,
1628667900000,0.13434,0.13418,0.13434,0.13418,34448.51297,
1628667960000,0.1342,0.1342,0.1342,0.1342,0.002,
1628668020000,0.13405,0.134,0.13405,0.134,0.002,
1628668080000,0.13381,0.13381,0.13381,0.13381,0.001,
1628668200000,0.13382,0.13382,0.13382,0.13382,0.05,
1628668260000,0.13387,0.13387,0.13387,0.13387,0.16607698,
1628668380000,0.13388,0.13389,0.13389,0.13388,0.20257064,
1628668440000,0.13383,0.13535,0.13535,0.13383,10186.65864196,
1628668500000,0.13491,0.13491,0.13491,0.13491,3.00177084,
1628668560000,0.13535,0.13537,0.13537,0.13535,9776.70022754,
1628668620000,0.13537,0.13537,0.13537,0.13537,0.04011499,
1628668680000,0.13537,0.13537,0.13537,0.13537,7.49049129,
1628669040000,0.13584,0.13584,0.13584,0.13584,1000.0,
1628669100000,0.13554,0.13554,0.13554,0.13554,0.93930168,
1628669160000,0.13554,0.13554,0.13554,0.13554,2.75535813,
1628669580000,0.13582,0.13565,0.13583,0.13565,18357.08439878,
1628669640000,0.13567,0.13567,0.13567,0.13567,0.21986837,
1628669700000,0.13567,0.13565,0.13567,0.13565,29000.0,
1628670060000,0.136,0.13553,0.136,0.13553,1520.27839593,
1628670540000,0.13598,0.13598,0.13598,0.13598,448.883612,
1628670720000,0.13561,0.13561,0.13561,0.13561,0.89734487,
1628670780000,0.13561,0.13519,0.13561,0.13519,7941.602944980001,
1628671140000,0.13535,0.13519,0.13535,0.13519,9113.45332015,
1628671260000,0.13495,0.13495,0.13495,0.13495,21662.1214124,
1628671320000,0.13494,0.13494,0.13494,0.13494,1058.0,
1628671860000,0.1354,0.1354,0.1354,0.1354,77674.5,
1628671980000,0.1354,0.1354,0.1354,0.1354,8.41240972,
1628672160000,0.1354,0.1354,0.1354,0.1354,18501.3,
1628672400000,0.1354,0.1354,0.1354,0.1354,17415.78759028,
1628672520000,0.1354,0.1354,0.1354,0.1354,2428.113547,
1628673060000,0.13446,0.13446,0.13446,0.13446,0.00122811,
1628673600000,0.1345,0.1345,0.1345,0.1345,0.00101183,
1628673720000,0.1345,0.1345,0.1345,0.1345,0.7390376399999999,
1628673900000,0.13511,0.13588,0.13588,0.13511,20603.16395502,
1628673960000,0.13611,0.13611,0.13611,0.13611,25.23034675,
1628674080000,0.13611,0.13611,0.13611,0.13611,3.69829293,
1628674620000,0.13652,0.13652,0.13652,0.13652,0.00114442,
1628674680000,0.13612,0.13611,0.13612,0.13611,7.37373199,
1628675220000,0.13652,0.13652,0.13652,0.13652,0.00112037,
1628675280000,0.13611,0.13611,0.13611,0.13611,0.81087682,
1628675400000,0.13652,0.13652,0.13652,0.13652,6.56170326,
1628675460000,0.13652,0.13696,0.13696,0.13652,36522.60853,
1628675520000,0.13819,0.13819,0.13819,0.13819,3.48541536,
1628675580000,0.13819,0.13819,0.13819,0.13819,28.20435939,
1628675640000,0.13893,0.13894,0.13894,0.13893,17893.3,
1628675700000,0.13875,0.13875,0.13875,0.13875,2.01412572,
1628675820000,0.13908,0.13908,0.13908,0.13908,2.93097664,
1628675880000,0.13866,0.13948,0.13948,0.13866,4000.62845416,
1628676120000,0.13866,0.13866,0.13866,0.13866,0.75777577,
1628676300000,0.13923,0.13923,0.13923,0.13923,8182.57292,
1628676360000,0.13956,0.1391,0.13956,0.13909,7726.66419659,
1628676840000,0.13911,0.13911,0.13911,0.13911,0.00129477,
1628676900000,0.13983,0.13983,0.13983,0.13983,0.00109768,
1628677020000,0.13914,0.13914,0.13914,0.13914,12.54057148,
1628677200000,0.13947,0.13947,0.13947,0.13947,8598.642417,
1628677560000,0.13916,0.13914,0.13916,0.13914,17978.0,
1628677620000,0.13889,0.13889,0.13889,0.13889,26391.07959,
1628677980000,0.1392,0.1392,0.1392,0.1392,8.90420721,
1628678220000,0.13857,0.13857,0.13857,0.13857,0.58926253,
1628678820000,0.1392,0.1392,0.1392,0.1392,0.00124884,
1628678880000,0.13891,0.13891,0.13891,0.13891,1.20029899,
1628678940000,0.1389,0.1389,0.1389,0.1389,33180.958256,
1628679000000,0.13884,0.13884,0.13884,0.13884,5.09872419,
1628679240000,0.13922,0.13914,0.13922,0.13914,7251.00340982,
1628679360000,0.13914,0.13914,0.13914,0.13914,4.61821018,
1628679780000,0.13915,0.13915,0.13915,0.13915,10.0,
1628679900000,0.13892,0.13892,0.13892,0.13892,0.17257852,
1628680080000,0.13946,0.13946,0.13946,0.13946,2860.0,
1628680140000,0.13927,0.13927,0.13927,0.13927,0.58706497,
1628680200000,0.13927,0.13927,0.13927,0.13927,4.75059345,
1628680680000,0.13979,0.14108,0.14108,0.13979,40867.7507788,
1628680800000,0.14108,0.14108,0.14108,0.14108,0.81495891,
1628681100000,0.14186,0.14187,0.14187,0.14186,17517.5,
1628681160000,0.14157,0.14157,0.14157,0.14157,1.45053567,
1628681220000,0.14157,0.14157,0.14157,0.14157,11.73789216,
1628681700000,0.14223,0.14223,0.14223,0.14223,0.00110821,
1628681820000,0.14151,0.14151,0.14151,0.14151,10.95225252,
1628681940000,0.14219,0.14514,0.14575,0.14219,134115.53108376,
1628682180000,0.14584,0.14584,0.14584,0.14584,2854.28,
1628682240000,0.14595,0.14595,0.14595,0.14595,11.04984589,
1628682360000,0.1456,0.1456,0.1456,0.1456,0.18991938,
1628682660000,0.14532,0.1453,0.14532,0.1453,2000.0,
1628683260000,0.14587,0.14556,0.14587,0.14555,13896.96682186,
1628683380000,0.14556,0.14556,0.14556,0.14556,0.45177587,
1628683980000,0.14634,0.14634,0.14634,0.14634,1033.5258217700002,
1628684040000,0.14556,0.14556,0.14556,0.14556,0.00105017,
1628684520000,0.14625,0.14625,0.14625,0.14625,0.00116628,
1628684640000,0.14556,0.14556,0.14556,0.14556,10.83011641,
1628685120000,0.14625,0.14556,0.14625,0.14556,0.0025013099999999,
1628685300000,0.14555,0.14555,0.14555,0.14555,450.0,
1628685660000,0.14603,0.14603,0.14603,0.14603,8050.11362,
1628685780000,0.14573,0.14573,0.14573,0.14573,7.54586268,
1628686200000,0.14573,0.14573,0.14573,0.14573,149.70000001,
1628686680000,0.14641,0.14641,0.14641,0.14641,0.00123236,
1628686800000,0.14573,0.14573,0.14573,0.14573,9.47781551,
1628687340000,0.1464,0.14573,0.1464,0.14573,0.00228352,
1628687820000,0.14649,0.14649,0.14649,0.14649,0.00100847,
1628687880000,0.14587,0.14587,0.14587,0.14587,10.58706774,
1628688000000,0.14587,0.14587,0.14587,0.14587,0.24203068,
1628688540000,0.14649,0.14649,0.14649,0.14649,0.0011688,
1628688600000,0.14587,0.14587,0.14587,0.14587,1.06628935,
1628689140000,0.1468,0.1468,0.1468,0.1468,0.00122246,
1628689260000,0.14609,0.14609,0.14609,0.14609,4.70880597,
1628689800000,0.14674,0.14674,0.14674,0.14674,0.00117876,
1628689860000,0.14618,0.14618,0.14618,0.14618,10.25653253,
1628690460000,0.14647,0.14647,0.14647,0.14647,0.0012622,
1628690520000,0.14583,0.14583,0.14583,0.14583,4.08384568,
1628691060000,0.14691,0.14638,0.14691,0.14638,0.0022849,
1628691180000,0.14638,0.14638,0.14638,0.14638,8.71545931,
1628691300000,0.14637,0.14637,0.14637,0.14637,998.0,
1628691780000,0.14699,0.1464,0.14699,0.1464,8.689828919999998,
1628691840000,0.14605,0.14605,0.14605,0.14605,0.05245834,
1628692380000,0.147,0.147,0.147,0.147,0.00101191,
1628692440000,0.14669,0.14642,0.14669,0.14642,9.00828639,
1628692500000,0.14642,0.14642,0.14642,0.14642,0.63585356,
1628692860000,0.1449,0.1449,0.1449,0.1449,77381.52700349,
1628692920000,0.14485,0.14485,0.14485,0.14485,94.80525742,
1628693460000,0.14413,0.14307,0.14413,0.14307,14841.4581627,
1628693580000,0.14299,0.14299,0.14299,0.14299,76.920502,
1628693760000,0.14299,0.14298,0.14299,0.14298,2423.503489,
1628694060000,0.14309,0.1431,0.1431,0.14309,17390.392753,
1628694120000,0.14306,0.14296,0.14306,0.14296,8016.10298212,
1628694660000,0.1431,0.1431,0.1431,0.1431,0.00117311,
1628694780000,0.14307,0.14308,0.14308,0.14307,2.2610378900000003,
1628694960000,0.14307,0.14307,0.14307,0.14307,0.0179527,
1628695500000,0.1431,0.1431,0.1431,0.1431,0.00117043,
1628695560000,0.14307,0.14307,0.14307,0.14307,0.44181557,
1628696040000,0.14307,0.14307,0.14307,0.14307,9175.01263933,
1628696400000,0.1431,0.14309,0.1431,0.14309,73072.04181557,
1628696520000,0.14309,0.1431,0.1431,0.14309,457.32735689,
1628696700000,0.14309,0.14309,0.14309,0.14309,0.01794769,
1628696820000,0.1431,0.1431,0.1431,0.1431,17391.6,
1628696940000,0.14309,0.14309,0.14309,0.14309,0.14725127,
1628697120000,0.14309,0.14296,0.14309,0.14296,35987.22960788,
1628697300000,0.14167,0.14167,0.14167,0.14167,150.0,
1628697360000,0.1412,0.1412,0.1412,0.1412,0.001,
1628697540000,0.14119,0.14113,0.14119,0.14113,17766.0,
1628697660000,0.14105,0.14105,0.14105,0.14105,0.001,
1628697720000,0.14106,0.1453,0.14741,0.14105,467412.75180416,
1628697780000,0.14514,0.14449,0.14514,0.14448,25321.10707,
1628697840000,0.1445,0.14815,0.14815,0.14447,153847.09889136,
1628697900000,0.14801,0.14801,0.14801,0.14801,10440.61401203,
1628697960000,0.14772,0.14772,0.14772,0.14772,55.27829134,
1628698020000,0.14772,0.14775,0.14775,0.14772,50.003,
1628698080000,0.14816,0.14931,0.14931,0.14816,1033.77228491,
1628698260000,0.14933,0.14933,0.14933,0.14933,1.91044843,
1628698380000,0.14987,0.14996,0.14996,0.14987,60.15172227,
1628698440000,0.14988,0.14988,0.14988,0.14988,0.003,
1628698500000,0.14988,0.14973,0.14988,0.14973,83.25548006,
1628698560000,0.14929,0.14964,0.14964,0.14929,100.002,
1628698620000,0.14866,0.14866,0.14866,0.14866,0.004,
1628698680000,0.14866,0.149,0.149,0.14866,0.006,
1628698740000,0.149,0.1486,0.149,0.1486,0.5650997,
1628698860000,0.1493,0.14859,0.1493,0.14859,11.00881803,
1628699040000,0.1489,0.14886,0.1489,0.14886,1163.36891191,
1628699160000,0.14885,0.14885,0.14885,0.14885,4.12907124,
1628699340000,0.14941,0.14941,0.14941,0.14941,9570.0,
1628699400000,0.14941,0.14941,0.14941,0.14941,8.51757039,
1628699700000,0.1496,0.14986,0.14986,0.1496,227.35562083,
1628699760000,0.14941,0.14941,0.14941,0.14941,6.05975524,
1628700360000,0.1495,0.14949,0.1495,0.14949,0.00227679,
1628700420000,0.14949,0.14949,0.14949,0.14949,1.0799562,
1628700540000,0.14953,0.14953,0.14953,0.14953,0.7369372399999999,
1628700600000,0.14953,0.14953,0.14953,0.14953,16640.7,
1628700960000,0.14906,0.14906,0.14906,0.14906,0.001,
1628701260000,0.14898,0.14898,0.14898,0.14898,16762.4,
1628701380000,0.14668,0.14667,0.14668,0.14667,16976.5,
1628701620000,0.14632,0.14632,0.14632,0.14632,17248.72243,
1628701680000,0.14632,0.14632,0.14632,0.14632,20.0,
1628701800000,0.14615,0.14615,0.14615,0.14615,0.002,
1628701920000,0.14615,0.14615,0.14615,0.14615,0.002,
1628701980000,0.14612,0.14612,0.14612,0.14612,0.001,
1628702460000,0.14695,0.14695,0.14695,0.14695,1.0,
1628702520000,0.14625,0.14625,0.14625,0.14625,3.25474503,
1628702640000,0.14695,0.14695,0.14695,0.14695,30.0,
1628702760000,0.1463,0.1463,0.1463,0.1463,0.001,
1628702820000,0.14627,0.14627,0.14627,0.14627,0.001,
1628702880000,0.14628,0.14628,0.14628,0.14628,0.28189465,
1628702940000,0.1465,0.14696,0.14696,0.1465,11781.893206,
1628703000000,0.14628,0.14628,0.14628,0.14628,9.67837955,
1628703540000,0.14694,0.14694,0.14694,0.14694,0.00121715,
1628703600000,0.1463,0.1463,0.1463,0.1463,0.00114613,
1628703660000,0.1463,0.1463,0.1463,0.1463,0.03434457,
1628703720000,0.1463,0.1463,0.1463,0.1463,0.28177904,
1628703780000,0.1463,0.1463,0.1463,0.1463,9.68273026,
1628703900000,0.14604,0.14609,0.14609,0.14604,0.005,
1628704260000,0.14674,0.14674,0.14674,0.14635,49.14223365,
1628704380000,0.14653,0.14674,0.14674,0.14653,935.71225,
1628704440000,0.14674,0.14707,0.14726,0.14674,34041.84138,
1628704500000,0.14681,0.14582,0.14761,0.14582,41279.72038362,
1628704620000,0.14584,0.14584,0.14584,0.14584,0.001,
1628704860000,0.1461,0.1461,0.1461,0.1461,8469.65521,
1628704980000,0.1464,0.14581,0.1464,0.14581,345.00349491000003,
1628705040000,0.14581,0.14581,0.14581,0.14581,0.4255435,
1628705100000,0.14577,0.1397,0.14577,0.13747,451822.59000526,
1628705160000,0.14039,0.1409,0.14098,0.14033,26277.01593213,
1628705220000,0.14051,0.14092,0.14092,0.14051,21136.91538056,
1628705280000,0.14085,0.14087,0.14087,0.14085,63327.42592943,
1628705400000,0.14079,0.14077,0.14079,0.14077,7.68849901,
1628705880000,0.14118,0.14072,0.14118,0.14072,44.75815484,
1628705940000,0.14075,0.14085,0.14085,0.14075,0.002,
1628706000000,0.14099,0.14099,0.14099,0.14099,0.001,
1628706060000,0.14072,0.14072,0.14072,0.14072,4.10324634,
1628706300000,0.14089,0.14089,0.14089,0.14089,0.001,
1628706420000,0.14075,0.14075,0.14075,0.14075,0.7718095300000001,
1628706960000,0.14122,0.14303,0.14362,0.14122,119285.88321693,
1628707020000,0.14311,0.14275,0.14311,0.14275,20373.67124518,
1628707080000,0.14275,0.14275,0.14275,0.14275,30.01327853,
1628707620000,0.14308,0.14308,0.14308,0.14308,0.0010709,
1628707680000,0.14275,0.14275,0.14275,0.14275,0.59376724,
1628708280000,0.14299,0.14299,0.14299,0.14299,0.00124692,
1628708400000,0.14267,0.14246,0.14267,0.14246,17509.54517291,
1628708460000,0.14299,0.14269,0.14299,0.14269,38574.489493,
1628709000000,0.14274,0.14232,0.14274,0.14232,0.7412205,
1628709600000,0.14232,0.14232,0.14232,0.14232,0.00102921,
1628709660000,0.14272,0.14272,0.14272,0.14272,0.00128557,
1628709780000,0.1421,0.1421,0.1421,0.1421,0.72371331,
1628710080000,0.14253,0.14253,0.14253,0.14253,7876.13423,
1628710140000,0.14225,0.14225,0.14225,0.14225,0.78023502,
1628710320000,0.14225,0.14225,0.14225,0.14225,2.23744758,
1628710440000,0.1425,0.1425,0.1425,0.1425,8016.76827,
1628710560000,0.14225,0.14225,0.14225,0.14225,3.71861171,
1628711040000,0.14257,0.14257,0.14257,0.14257,0.0010027,
1628711100000,0.14225,0.14225,0.14225,0.14225,4.75748598,
1628711520000,0.14257,0.14374,0.14374,0.14257,46080.40272652,
1628711580000,0.14355,0.14454,0.14454,0.14355,17215.171733170002,
1628711640000,0.14462,0.14462,0.14462,0.14462,20316.17215097,
1628711760000,0.14516,0.14462,0.14517,0.14462,10489.60961967,
1628711820000,0.14463,0.14463,0.14463,0.14463,12.76393659,
1628711880000,0.14463,0.14463,0.14463,0.14463,0.14415218,
1628712120000,0.14521,0.14521,0.14521,0.14521,622.40309226,
1628712180000,0.14508,0.14508,0.14508,0.14508,1.01491676,
1628712300000,0.14508,0.14508,0.14508,0.14508,6.46628056,
1628712840000,0.14566,0.14566,0.14566,0.14566,0.00103195,
1628712900000,0.14488,0.14488,0.14488,0.14488,8.27538303,
1628713140000,0.14487,0.14487,0.14487,0.14487,7429.78023,
1628713260000,0.14462,0.14462,0.14462,0.14462,7725.68279,
1628713800000,0.1447,0.1447,0.1447,0.1447,0.00119912,
1628713860000,0.1441,0.1441,0.1441,0.1441,0.00111057,
1628714280000,0.14469,0.14413,0.14469,0.14404,59.572066840000005,
1628714340000,0.14412,0.14412,0.14412,0.14412,0.001,
1628714400000,0.1445,0.14448,0.1445,0.14448,17249.3,
1628714460000,0.14469,0.14469,0.14469,0.14469,4.0,
1628714580000,0.14404,0.14404,0.14404,0.14404,0.36917339,
1628714940000,0.14412,0.14412,0.14412,0.14412,7606.30533,
1628715060000,0.14387,0.14387,0.14387,0.14387,17324.8,
1628715120000,0.14356,0.14356,0.14356,0.14356,0.001,
1628715240000,0.14351,0.14422,0.14422,0.14351,0.002,
1628715360000,0.14354,0.14354,0.14354,0.14354,0.31843533,
1628715600000,0.14364,0.1414,0.14364,0.1414,75969.53573767,
1628715660000,0.14075,0.14075,0.14075,0.14075,0.001,
1628715720000,0.14076,0.14076,0.14076,0.14076,4.43661973,
1628715840000,0.14081,0.14075,0.14081,0.14075,38815.88837143,
1628715900000,0.1404,0.1404,0.1404,0.1404,0.001,
1628715960000,0.14081,0.14081,0.14081,0.14081,24.045078000000004,
1628716020000,0.1405,0.1405,0.1405,0.1405,0.001,
1628716080000,0.1405,0.1406,0.1406,0.14042,5.600247,
1628716140000,0.1407,0.1407,0.1407,0.1407,0.001,
1628716200000,0.1407,0.1407,0.1407,0.1407,0.002,
1628716260000,0.14038,0.14,0.14038,0.14,39652.06855223,
1628716320000,0.14004,0.14004,0.14004,0.14004,1782.53119429,
1628716440000,0.14033,0.14033,0.14033,0.14033,15.0,
1628716500000,0.1403,0.14026,0.1403,0.13992,18.4494193,
1628716560000,0.14026,0.14026,0.14026,0.14026,7.0,
1628716620000,0.14005,0.14005,0.14005,0.14005,7.0,
1628716680000,0.14004,0.14004,0.14004,0.14004,15963.78311653,
1628716740000,0.14003,0.14002,0.14003,0.14002,28.0,
1628717040000,0.13998,0.13998,0.13998,0.13998,0.001,
1628717100000,0.14034,0.13998,0.14034,0.13998,18.91005545,
1628717400000,0.14037,0.14037,0.14037,0.14037,14.0,
1628717460000,0.13998,0.13998,0.13998,0.13998,0.72942671,
1628717880000,0.13999,0.13998,0.13999,0.13998,17162.82,
1628718360000,0.1398,0.1398,0.1398,0.1398,0.00104284,
1628718720000,0.1398,0.1398,0.1398,0.1398,8824.63402,
1628719260000,0.14005,0.14005,0.14005,0.14005,0.00100332,
1628719320000,0.13953,0.13953,0.13953,0.13953,0.00104274,
1628719500000,0.1392,0.1392,0.1392,0.1392,7237.79709,
1628719560000,0.13901,0.13901,0.13901,0.13901,0.001,
1628720100000,0.13901,0.13901,0.13901,0.13901,10268.999,
1628720640000,0.13873,0.13873,0.13873,0.13873,0.00126322,
1628720700000,0.13932,0.13932,0.13932,0.13932,0.00113383,
1628720760000,0.13876,0.13873,0.13876,0.13873,5.948079719999999,
1628721300000,0.13887,0.13887,0.13887,0.13887,0.00107314,
1628721420000,0.13887,0.13887,0.13887,0.13887,0.2670586,
1628721900000,0.13887,0.13887,0.13887,0.13887,7287.3375736,
1628722140000,0.1386,0.1386,0.1386,0.1386,0.001,
1628722320000,0.13919,0.1392,0.1392,0.13919,10156.60288536,
1628722380000,0.1389,0.13862,0.1389,0.13862,8207.707708799999,
1628722440000,0.1386,0.1386,0.1386,0.1386,0.03825588,
1628722500000,0.13918,0.13919,0.13919,0.13918,9733.36857659,
1628722560000,0.13886,0.13886,0.13886,0.13886,5.60834921,
1628723040000,0.1394,0.1394,0.1394,0.1394,0.00120861,
1628723160000,0.13886,0.13886,0.13886,0.13886,1.02520607,
1628723700000,0.13886,0.1394,0.1394,0.13886,0.00219,
1628723820000,0.13886,0.13886,0.13886,0.13886,9.43648022,
1628724360000,0.13928,0.13928,0.13928,0.13928,0.00109657,
1628724480000,0.13886,0.13886,0.13886,0.13886,7.345808119999999,
1628724960000,0.13908,0.13908,0.13908,0.13908,0.00109522,
1628725020000,0.13886,0.13886,0.13886,0.13886,3.85333748,
1628725560000,0.13903,0.13903,0.13903,0.13903,0.0010326,
1628725620000,0.13886,0.13886,0.13886,0.13886,0.32360899,
1628726160000,0.13898,0.13898,0.13898,0.13898,0.00100382,
1628726280000,0.13886,0.13886,0.13886,0.13886,2.10333276,
1628726400000,0.13887,0.13886,0.13887,0.13886,8425.11119,
1628726700000,0.13896,0.13975,0.13975,0.13896,65088.09833347,
1628726760000,0.14028,0.14042,0.14042,0.14028,170.0,
1628726820000,0.13967,0.13967,0.13967,0.13967,27.0629215,
1628727300000,0.14061,0.14061,0.14061,0.14061,0.00117167,
1628727420000,0.14112,0.14111,0.14138,0.14111,38565.44152374,
1628727480000,0.1409,0.1409,0.1409,0.1409,2.68509039,
1628727960000,0.14151,0.1409,0.14151,0.1409,1.1266285,
1628728560000,0.14143,0.14143,0.14143,0.14143,0.00124292,
1628728620000,0.14091,0.14091,0.14091,0.14091,8.99662346,
1628729160000,0.14134,0.14134,0.14134,0.14134,0.00128472,
1628729220000,0.14078,0.14078,0.14078,0.14078,7.303276830000001,
1628729760000,0.14134,0.14077,0.14134,0.14077,9.52106926,
1628730360000,0.14134,0.14134,0.14134,0.14134,0.00109389,
1628730420000,0.14078,0.14077,0.14078,0.14077,8.65643317,
1628730960000,0.14134,0.14134,0.14134,0.14134,0.00123826,
1628731020000,0.14078,0.14078,0.14078,0.14078,8.63788905,
1628731080000,0.14078,0.14078,0.14078,0.14078,0.01854412,
1628731440000,0.14078,0.14077,0.14078,0.14077,17676.4,
1628731920000,0.14043,0.13903,0.14043,0.13862,109030.29731859,
1628731980000,0.13928,0.1393,0.1393,0.13928,24271.67389165,
1628732100000,0.13928,0.13928,0.13928,0.13928,4.20351003,
1628732640000,0.13951,0.13928,0.13951,0.13928,0.43720355,
1628733240000,0.13951,0.13923,0.13951,0.13923,3.57015587,
1628733720000,0.13951,0.13951,0.13951,0.13951,0.00114313,
1628733780000,0.13923,0.13923,0.13923,0.13923,4.34638139,
1628734260000,0.13951,0.13951,0.13951,0.13951,0.00101282,
1628734320000,0.13917,0.13917,0.13917,0.13917,0.52975762,
1628734860000,0.13951,0.13916,0.13951,0.13916,0.6448261399999999,
1628735040000,0.13951,0.13917,0.13951,0.13917,83.79466115,
1628735100000,0.13951,0.13917,0.13951,0.13917,159.97520665,
1628735700000,0.13951,0.13962,0.13962,0.13951,4853.75861369,
1628735760000,0.13962,0.13962,0.13962,0.13962,0.85109217,
1628735940000,0.13963,0.13963,0.13963,0.13963,1.70273741,
1628736000000,0.13963,0.13963,0.13963,0.13963,0.01885085,
1628736120000,0.13963,0.13963,0.13963,0.13963,0.15466128,
1628736480000,0.13977,0.13977,0.13977,0.13977,81.33182485,
1628736540000,0.13959,0.13959,0.13959,0.13959,0.26362869,
1628737080000,0.13972,0.13972,0.13972,0.13972,0.00121497,
1628737140000,0.13956,0.13956,0.13956,0.13956,0.00123654,
1628737260000,0.13972,0.13972,0.13972,0.13972,79.49340824,
1628737380000,0.13972,0.13956,0.13972,0.13956,4.121599209999999,
1628737920000,0.13972,0.13972,0.13972,0.13972,0.00123255,
1628738040000,0.1395,0.1395,0.1395,0.1395,0.30154893,
1628738580000,0.13972,0.13927,0.13972,0.13927,3.4044248500000003,
1628739060000,0.14039,0.13974,0.14039,0.13969,19.37776734,
1628739420000,0.14033,0.14033,0.14033,0.14033,3600.0,
1628739480000,0.1398,0.1398,0.1398,0.1398,10.17740265,
1628739960000,0.14049,0.1398,0.14049,0.1398,10.59376106,
1628740560000,0.14041,0.14041,0.14041,0.14041,0.00115854,
1628740620000,0.14013,0.14013,0.14013,0.14013,6.22110483,
1628741220000,0.14041,0.1398,0.14041,0.1398,0.00247304,
1628741760000,0.1401,0.13979,0.1401,0.13979,0.56417734,
1628742360000,0.1401,0.1401,0.1401,0.1401,0.00123592,
1628742420000,0.13979,0.13979,0.13979,0.13979,0.00120336,
1628742900000,0.1401,0.1401,0.1401,0.1401,0.00123544,
1628742960000,0.13979,0.13979,0.13979,0.13979,5.35431185,
1628743560000,0.13979,0.13967,0.13979,0.13967,355.08158214,
1628744160000,0.13967,0.13967,0.13967,0.13967,0.00100608,
1628744640000,0.14029,0.14029,0.14029,0.14029,0.00101008,
1628744700000,0.13967,0.13967,0.13967,0.13967,0.00102134,
1628745240000,0.14029,0.14029,0.14029,0.14029,0.00123829,
1628745300000,0.13967,0.13967,0.13967,0.13967,1.16283792,
1628745840000,0.13967,0.13967,0.13967,0.13967,0.00119057,
1628746080000,0.13967,0.13967,0.13967,0.13967,39.65204537,
1628746620000,0.14029,0.14029,0.14029,0.14029,0.00120141,
1628746680000,0.13967,0.13967,0.13967,0.13967,0.00122966,
1628746740000,0.13967,0.13963,0.13967,0.13963,20763.5794263,
1628746800000,0.139,0.139,0.139,0.139,3300.0,
1628746860000,0.13933,0.13912,0.13933,0.13912,20761.18425878,
1628746980000,0.1389,0.1389,0.1389,0.1389,1.8366803,
1628747100000,0.13891,0.13891,0.13891,0.13891,3592.8,
1628747340000,0.13887,0.13887,0.13887,0.13887,0.15339844,
1628747940000,0.13949,0.13949,0.13949,0.13949,0.00112915,
1628748000000,0.13892,0.13892,0.13892,0.13892,10.64944787,
1628748540000,0.13892,0.13892,0.13892,0.13892,0.00118477,
1628748900000,0.13914,0.13914,0.13914,0.13914,0.001,
1628749020000,0.13912,0.13912,0.13912,0.13912,3.78697832,
1628749200000,0.13911,0.13911,0.13911,0.13911,0.001,
1628749500000,0.13909,0.13909,0.13909,0.13909,0.002,
1628749680000,0.13922,0.13922,0.13922,0.13922,30.0,
1628749740000,0.13922,0.13922,0.13922,0.13922,1.98702123,
1628749860000,0.13922,0.13922,0.13922,0.13922,30.0,
1628750400000,0.1395,0.1395,0.1395,0.1395,0.00118981,
1628750520000,0.13929,0.13929,0.13929,0.13929,4.796993240000001,
1628751000000,0.13956,0.13922,0.13956,0.13922,4.112072309999999,
1628751540000,0.13956,0.13956,0.13956,0.13956,0.00103582,
1628751720000,0.13892,0.13892,0.13892,0.13892,5.82341611,
1628752260000,0.1393,0.1393,0.1393,0.1393,0.00125938,
1628752320000,0.13892,0.13892,0.13892,0.13892,0.00129139,
1628752800000,0.1393,0.1393,0.1393,0.1393,0.00115397,
1628752860000,0.13892,0.13892,0.13892,0.13892,5.81307072,
1628752920000,0.1393,0.1393,0.1393,0.1393,359.121846,
1628752980000,0.13892,0.1393,0.1393,0.13892,46.94631339,
1628753580000,0.1393,0.1393,0.1393,0.1393,0.00120359,
1628754120000,0.1393,0.1393,0.1393,0.1393,0.00119063,
1628754720000,0.1393,0.13892,0.1393,0.13892,0.0024029999999999,
1628755320000,0.13943,0.13943,0.13943,0.13943,0.0010307,
1628755380000,0.13895,0.13895,0.13895,0.13895,8.76064508,
1628755980000,0.13943,0.13943,0.13943,0.13943,0.00127376,
1628756040000,0.13895,0.13895,0.13895,0.13895,8.24353281,
1628756580000,0.13895,0.13895,0.13895,0.13895,0.00105465,
1628757060000,0.13895,0.13895,0.13895,0.13895,10.0,
1628757600000,0.13934,0.13934,0.13934,0.13934,0.00119317,
1628757720000,0.13895,0.13895,0.13895,0.13895,6.70219658,
1628758260000,0.13895,0.13895,0.13895,0.13895,0.00111932,
1628758800000,0.13895,0.13895,0.13895,0.13895,0.00123968,
1628759340000,0.13895,0.13895,0.13895,0.13895,0.00105133,
1628759640000,0.13933,0.13933,0.13933,0.13933,536.87983,
1628759760000,0.13895,0.13895,0.13895,0.13895,5.80947784,
1628760300000,0.13933,0.13895,0.13933,0.13895,5.810598209999999,
1628760900000,0.13933,0.13933,0.13933,0.13933,0.00115427,
1628760960000,0.13895,0.13895,0.13895,0.13895,5.80947784,
1628761560000,0.13895,0.13895,0.13895,0.13895,0.00101074,
1628761860000,0.13895,0.13892,0.13895,0.13892,2694.74239148,
1628762340000,0.13889,0.13889,0.13889,0.13889,0.00128372,
1628762820000,0.13889,0.13889,0.13889,0.13889,0.00119176,
1628763300000,0.13889,0.13889,0.13889,0.13889,120.17500025,
1628763780000,0.13925,0.13925,0.13925,0.13925,360.0,
1628763900000,0.1387,0.1387,0.1387,0.1387,5.50925673,
1628764260000,0.1391,0.1391,0.1391,0.1391,5000.0,
1628764380000,0.13878,0.13878,0.13878,0.13878,6.89831963,
1628764500000,0.13919,0.13878,0.13919,0.13878,239.64341421,
1628764560000,0.13878,0.13878,0.13878,0.13878,1.37582766,
1628764860000,0.1392,0.1392,0.1392,0.1392,681.893279,
1628764980000,0.13878,0.13878,0.13878,0.13878,0.0189675,
1628765460000,0.1392,0.1392,0.1392,0.1392,0.00101354,
1628765580000,0.13878,0.13878,0.13878,0.13878,6.43487128,
1628766060000,0.13919,0.13878,0.13919,0.13878,6.28336354,
1628766660000,0.13919,0.13919,0.13919,0.13919,0.00103214,
1628766720000,0.13878,0.13878,0.13878,0.13878,6.28211136,
1628767200000,0.13919,0.13919,0.13919,0.13919,0.00127257,
1628767260000,0.13878,0.13878,0.13878,0.13878,6.28318399,
1628767800000,0.13919,0.13863,0.13919,0.13863,2000.00110583,
1628767980000,0.13883,0.13883,0.13883,0.13883,19729.76223,
1628768040000,0.1386,0.1386,0.1386,0.1386,0.76809774,
1628768280000,0.13875,0.13875,0.13875,0.13875,8123.03608,
1628768340000,0.1386,0.13856,0.1386,0.13856,19853.60946226,
1628768460000,0.13904,0.13905,0.13905,0.13904,4694.794438,
1628768520000,0.13893,0.13893,0.13893,0.13893,7.52738109,
1628768580000,0.13893,0.13893,0.13893,0.13893,0.70635847,
1628769120000,0.13924,0.13924,0.13924,0.13924,0.0011377,
1628769180000,0.13893,0.13893,0.13893,0.13893,4.7430569,
1628769240000,0.13924,0.14006,0.14006,0.13924,40000.0,
1628769300000,0.14026,0.14049,0.14049,0.13964,26015.90945347,
1628769360000,0.14049,0.14106,0.14106,0.1399,44002.93724717,
1628769420000,0.14013,0.14013,0.14013,0.14013,11.51640215,
1628769480000,0.14013,0.14013,0.14013,0.14013,7942.85899785,
1628769540000,0.13984,0.13984,0.13984,0.13984,700.0,
1628770080000,0.14056,0.14056,0.14056,0.14056,0.00116421,
1628770140000,0.13984,0.13983,0.13984,0.13983,1.34723128,
1628770680000,0.14048,0.14048,0.14048,0.14048,0.00116389,
1628770740000,0.13984,0.13984,0.13984,0.13984,9.79388933,
1628770800000,0.13983,0.13983,0.13983,0.13983,0.01879427,
1628771280000,0.14048,0.13983,0.14048,0.13983,1.21725938,
1628771340000,0.13983,0.13983,0.13983,0.13983,0.00107851,
1628771760000,0.13983,0.1395,0.13983,0.1395,36561.12185489,
1628772300000,0.1398,0.1398,0.1398,0.1398,0.00114201,
1628772360000,0.13913,0.13913,0.13913,0.13913,0.56532374,
1628772420000,0.13913,0.13868,0.13913,0.13868,30381.03136636,
1628772780000,0.13945,0.13945,0.13945,0.13945,1036.0,
1628772900000,0.13872,0.13872,0.13872,0.13872,1.46324051,
1628772960000,0.13873,0.13873,0.13873,0.13873,0.61540889,
1628773080000,0.13883,0.13883,0.13883,0.13883,0.15379677,
1628773140000,0.13883,0.13883,0.13883,0.13883,0.1908111,
1628773200000,0.13883,0.13883,0.13883,0.13883,1.53674915,
1628773680000,0.13954,0.13954,0.13954,0.13954,0.00112819,
1628773800000,0.13898,0.13898,0.13898,0.13898,10.84758341,
1628773920000,0.13897,0.13897,0.13897,0.13897,0.2857018,
1628774460000,0.13897,0.13897,0.13897,0.13897,0.00121043,
1628774580000,0.13897,0.13897,0.13897,0.13897,8237.08959777,
1628775180000,0.13929,0.13929,0.13929,0.13929,173.596816,
1628775240000,0.13867,0.13867,0.13867,0.13867,0.60752804,
1628775660000,0.13929,0.13929,0.13929,0.13929,107.4659,
1628775720000,0.13867,0.13867,0.13867,0.13867,1.17963209,
1628776320000,0.13885,0.13885,0.13885,0.13885,0.00128735,
1628776380000,0.13885,0.13885,0.13885,0.13885,0.34355909,
1628776440000,0.13885,0.13885,0.13885,0.13885,2.76694672,
1628776860000,0.13944,0.13944,0.13944,0.13944,394.0,
1628776920000,0.13885,0.13885,0.13885,0.13885,1.11989188,
1628777280000,0.13885,0.13885,0.13885,0.13885,7569.80667496,
1628777820000,0.13917,0.13858,0.13917,0.13858,4.90257836,
1628778300000,0.13916,0.13916,0.13916,0.13916,0.00126453,
1628778360000,0.13857,0.13857,0.13857,0.13857,0.00104576,
1628778420000,0.13857,0.13857,0.13857,0.13857,29.60534964,
1628778960000,0.13916,0.13916,0.13916,0.13916,0.00122545,
1628779020000,0.13857,0.13857,0.13857,0.13857,1.12441264,
1628779080000,0.1385,0.1385,0.1385,0.1385,78.61048096,
1628779140000,0.13862,0.13862,0.13862,0.13862,38713.27298127,
1628779320000,0.13787,0.13787,0.13787,0.13787,0.75969297,
1628779800000,0.1386,0.13798,0.1386,0.13798,0.00213029,
1628779920000,0.1383,0.13798,0.1383,0.13797,7621.3681272,
1628780100000,0.13798,0.13798,0.13798,0.13798,0.15330714,
1628780340000,0.13861,0.13842,0.13966,0.13842,120988.75632939,
1628780400000,0.13843,0.13843,0.13843,0.13843,0.84663269,
1628780580000,0.13842,0.13842,0.13842,0.13842,0.0191791,
1628781060000,0.13907,0.13894,0.13934,0.13894,17794.952954,
1628781120000,0.13902,0.13902,0.13902,0.13902,7.89115213,
1628781240000,0.13903,0.13903,0.13903,0.13903,1.20878377,
1628781300000,0.13902,0.13902,0.13902,0.13902,0.01901391,
1628781480000,0.13902,0.13902,0.13902,0.13902,8307.15432396,
1628782020000,0.13933,0.13904,0.13934,0.13904,7723.15655128,
1628782080000,0.13908,0.13908,0.13908,0.13908,4.82125498,
1628782200000,0.13884,0.13884,0.13884,0.13884,0.11404247,
1628782320000,0.13977,0.13978,0.13978,0.13977,14184.4022089,
1628782380000,0.14025,0.14173,0.14173,0.14025,129499.58277582,
1628782440000,0.14052,0.14052,0.14052,0.14052,47.80377361,
1628783040000,0.14057,0.14057,0.14057,0.14057,0.001054,
1628783100000,0.14057,0.14057,0.14125,0.14057,0.8330259,
1628783580000,0.14074,0.14074,0.14074,0.14074,17703.8,
1628783640000,0.14063,0.14063,0.14063,0.14063,1.20160497,
1628783760000,0.14063,0.14063,0.14063,0.14063,200.0,
1628784060000,0.14063,0.14063,0.14063,0.14063,7719.88521503,
1628784420000,0.14065,0.14065,0.14065,0.14065,0.001,
1628784480000,0.14083,0.14058,0.14083,0.14058,7983.111559849999,
1628784540000,0.14058,0.14058,0.14058,0.14058,2.94727087,
1628784660000,0.14052,0.14052,0.14052,0.14052,300.001,
1628784780000,0.14053,0.14053,0.14053,0.14053,1779.10617705,
1628784900000,0.14052,0.14052,0.14052,0.14052,1779.10617705,
1628785020000,0.14043,0.14043,0.14043,0.14043,1779.10617705,
1628785140000,0.14035,0.14035,0.14035,0.14035,1780.24638609,
1628785320000,0.14088,0.14088,0.14088,0.14088,2810.7965235700003,
1628785440000,0.14028,0.14028,0.14028,0.14028,8.80815179,
1628785680000,0.14027,0.14027,0.14027,0.14027,8472.69573,
1628785980000,0.14029,0.14024,0.14069,0.14024,26257.66713779,
1628786160000,0.14054,0.14051,0.14055,0.14051,18664.26385347,
1628786220000,0.13993,0.13993,0.13993,0.13993,3.99896718,
1628786400000,0.14054,0.14055,0.14055,0.14054,11301.95240594,
1628786520000,0.14015,0.13984,0.14015,0.13984,7191.57983251,
1628786640000,0.14047,0.14017,0.14048,0.14017,17878.31792285,
1628786700000,0.14049,0.1405,0.1405,0.14049,10841.26490083,
1628786760000,0.14019,0.13992,0.14019,0.13992,7323.58615464,
1628786820000,0.1405,0.14018,0.14051,0.14018,13325.6283053,
1628787240000,0.14039,0.1404,0.1404,0.14039,10359.65915929,
1628787300000,0.14007,0.14007,0.14007,0.14007,0.41079662,
1628787480000,0.1405,0.14024,0.14051,0.14024,19088.01559949,
1628787540000,0.13996,0.13996,0.13996,0.13996,2.52577756,
1628787840000,0.14052,0.1402,0.14053,0.1402,25389.56696,
1628787900000,0.13974,0.13974,0.13974,0.13974,4.019110749999999,
1628788320000,0.13974,0.13974,0.13974,0.13974,0.001,
1628788680000,0.14,0.13996,0.14051,0.13996,11280.78601905,
1628789280000,0.13996,0.13996,0.13996,0.13996,0.00110568,
1628789820000,0.13976,0.13976,0.13976,0.13976,0.00123755,
1628790360000,0.13976,0.13976,0.13976,0.13976,0.00102555,
1628790420000,0.14036,0.14037,0.14037,0.14036,10771.1460001,
1628790480000,0.13979,0.13979,0.13979,0.13979,9.13120602,
1628790540000,0.1398,0.1398,0.1398,0.1398,0.001,
1628790600000,0.13979,0.13979,0.13979,0.13979,0.01880503,
1628791140000,0.14036,0.14036,0.14036,0.14036,0.00102911,
1628791260000,0.13979,0.13979,0.13979,0.13979,8.47849178,
1628791740000,0.14036,0.14036,0.14036,0.14036,0.00108536,
1628791800000,0.13979,0.13979,0.13979,0.13979,1.06761025,
1628792400000,0.14036,0.13979,0.14036,0.13979,8.47963354,
1628792460000,0.13979,0.13979,0.13979,0.13979,1.06761025,
1628793000000,0.14046,0.14046,0.14046,0.14046,0.00101406,
1628793060000,0.1398,0.13979,0.1398,0.13979,9.97765628,
1628793540000,0.1398,0.13979,0.1398,0.13979,8069.05801986,
1628793900000,0.13981,0.14005,0.14005,0.13981,17686.8,
1628793960000,0.13977,0.13977,0.13977,0.13977,7.91625,
1628794020000,0.13977,0.13977,0.13977,0.13977,0.99681286,
1628794500000,0.14009,0.14009,0.14009,0.14009,0.00124828,
1628794560000,0.13955,0.13955,0.13955,0.13955,0.00102986,
1628794620000,0.13955,0.13955,0.13955,0.13955,998.0,
1628794920000,0.14009,0.1403,0.1403,0.14009,17650.3,
1628795040000,0.13974,0.13974,0.13974,0.13974,1.40776802,
1628795160000,0.13974,0.13974,0.13974,0.13974,2.84358512,
1628795700000,0.14037,0.14037,0.14037,0.14037,0.0010439,
1628795760000,0.13974,0.13974,0.13974,0.13974,9.3748644,
1628796360000,0.14032,0.14032,0.14032,0.14032,0.00129974,
1628796420000,0.13977,0.13977,0.13977,0.13977,8.689231710000001,
1628797020000,0.13977,0.13977,0.13977,0.13977,0.0010883,
1628797620000,0.14032,0.14032,0.14032,0.14032,0.00121974,
1628797680000,0.13994,0.13994,0.13994,0.13994,9.21509526,
1628797860000,0.13994,0.13994,0.13994,0.13994,7159.75092474,
1628798340000,0.14027,0.14027,0.14027,0.14027,0.00118449,
1628798400000,0.13977,0.13977,0.13977,0.13977,0.61782377,
1628798880000,0.14,0.14,0.14,0.14,363.543142,
1628798940000,0.13966,0.13966,0.13966,0.13966,3.86239349,
1628799000000,0.13993,0.13993,0.13993,0.13993,5.34014364,
1628799600000,0.14,0.14,0.14,0.14,0.00128399,
1628799720000,0.13966,0.13966,0.13966,0.13966,1.17416695,
1628800260000,0.14,0.14,0.14,0.14,0.00102067,
1628800320000,0.13986,0.13986,0.13986,0.13986,5.07507022,
1628800860000,0.14,0.13986,0.14,0.13986,0.26404096,
1628801460000,0.14,0.14,0.14,0.14,0.00127068,
1628801520000,0.13986,0.13986,0.13986,0.13986,2.08800002,
1628801640000,0.13986,0.13986,0.13986,0.13986,17762.6,
1628802180000,0.14,0.14,0.14,0.14,0.00122393,
1628802240000,0.13966,0.13966,0.13966,0.13966,0.00123555,
1628802360000,0.14,0.14,0.14,0.14,1636.44392253,
1628802420000,0.13996,0.13996,0.13996,0.13996,5.714122199999999,
1628803020000,0.14007,0.14007,0.14007,0.14007,0.00119126,
1628803080000,0.14007,0.14007,0.14007,0.14007,1.84380209,
1628803620000,0.14007,0.14007,0.14007,0.14007,0.0011395,
1628804160000,0.14065,0.14065,0.14065,0.14065,0.00100749,
1628804280000,0.14007,0.14007,0.14007,0.14007,1.08193326,
1628804820000,0.14,0.14,0.14,0.14,0.00124785,
1628805360000,0.14056,0.14056,0.14056,0.14056,0.00122616,
1628805420000,0.14,0.14,0.14,0.14,8.30541724,
1628805960000,0.1396,0.1396,0.1396,0.1396,0.00101441,
1628806500000,0.1396,0.1396,0.1396,0.1396,0.0012653,
1628807040000,0.1396,0.13993,0.13993,0.1396,0.00223056,
1628807160000,0.1396,0.1396,0.1396,0.1396,0.62083334,
1628807760000,0.1396,0.1396,0.1396,0.1396,0.00113391,
1628808240000,0.1396,0.1396,0.1396,0.1396,0.00123732,
1628808780000,0.1396,0.1396,0.1396,0.1396,0.00124378,
1628809260000,0.1396,0.1396,0.1396,0.1396,0.00100838,
1628809800000,0.14005,0.14005,0.14005,0.14005,0.00129631,
1628809860000,0.1396,0.1396,0.1396,0.1396,7.56335809,
1628810460000,0.1396,0.1396,0.1396,0.1396,0.0011277,
1628810940000,0.14005,0.14005,0.14005,0.14005,0.00118229,
1628811480000,0.14005,0.13983,0.14005,0.13983,4.285933910000001,
1628812020000,0.14005,0.14005,0.14005,0.14005,0.00114715,
1628812140000,0.13983,0.13983,0.13983,0.13983,3.27870559,
1628812680000,0.13983,0.13983,0.13983,0.13983,0.00107562,
1628812740000,0.14004,0.14004,0.14004,0.14004,0.00106998,
1628812860000,0.1396,0.13811,0.1396,0.13811,36013.58668625,
1628812920000,0.13811,0.13811,0.13811,0.13811,18042.7,
1628813460000,0.13776,0.13777,0.13777,0.13776,14810.2720289,
1628814060000,0.13806,0.13803,0.13843,0.13803,18877.12292946,
1628814180000,0.13803,0.13803,0.13803,0.13803,3.99032632,
1628814300000,0.13825,0.13825,0.13825,0.13825,18013.0,
1628814360000,0.13803,0.13586,0.13803,0.13586,44946.93903419,
1628814660000,0.13595,0.13509,0.13595,0.13509,3.22636084,
1628815260000,0.13595,0.13595,0.13595,0.13595,0.00115864,
1628815320000,0.13545,0.13545,0.13545,0.13545,13.66656118,
1628815380000,0.13546,0.13546,0.13546,0.13546,0.72303219,
1628815620000,0.13555,0.13555,0.13555,0.13555,0.02002937,
1628815740000,0.13557,0.13557,0.13557,0.13557,1.6506519700000002,
1628815860000,0.13558,0.13558,0.13558,0.13558,0.33763021,
1628815980000,0.13559,0.13559,0.13559,0.13559,0.15878299,
1628816040000,0.13559,0.13559,0.13559,0.13559,0.01999097,
1628816100000,0.13559,0.13559,0.13559,0.13559,0.15875957,
1628816700000,0.13614,0.13567,0.13614,0.13567,0.00228114,
1628816760000,0.13567,0.13567,0.13567,0.13567,1.4290557899999998,
1628817360000,0.13614,0.13614,0.13614,0.13614,0.00111286,
1628817420000,0.13567,0.13567,0.13567,0.13567,0.93515937,
1628817960000,0.13614,0.13614,0.13614,0.13614,0.00112546,
1628818080000,0.13567,0.13567,0.13567,0.13567,7.53289114,
1628818620000,0.13567,0.13602,0.13602,0.13567,0.00226116,
1628818740000,0.13567,0.13567,0.13567,0.13567,6.31155836,
1628819220000,0.13602,0.13567,0.13602,0.13567,0.69825552,
1628819280000,0.13567,0.13567,0.13567,0.13567,0.00111388,
1628819760000,0.13602,0.13602,0.13602,0.13602,0.00107904,
1628819880000,0.13567,0.13567,0.13567,0.13567,5.61454871,
1628819940000,0.1357,0.1357,0.1357,0.1357,4.65500266,
1628820120000,0.13595,0.13595,0.13595,0.13595,0.05988457,
1628820240000,0.13614,0.13614,0.13614,0.13614,4.01156981,
1628820360000,0.13634,0.13663,0.13685,0.13634,18235.24682112,
1628820420000,0.13663,0.13663,0.13663,0.13663,14.32029289,
1628820960000,0.13735,0.13735,0.13735,0.13735,0.00115661,
1628821020000,0.13671,0.13671,0.13671,0.13671,2.67786375,
1628821560000,0.13727,0.13727,0.13727,0.13727,0.00116349,
1628821680000,0.13671,0.13671,0.13671,0.13671,1.09665356,
1628821740000,0.13722,0.13723,0.13723,0.13722,11551.8077672,
1628821800000,0.13697,0.13697,0.13697,0.13697,8.20516657,
1628822280000,0.13722,0.13722,0.13722,0.13722,18165.0,
1628822340000,0.13697,0.13697,0.13697,0.13697,4.42641664,
1628822940000,0.13728,0.13699,0.13728,0.13699,7241.70974536,
1628823000000,0.13671,0.13671,0.13671,0.13671,0.35470786,
1628823540000,0.1373,0.1373,0.1373,0.1373,0.00105144,
1628823600000,0.13672,0.13672,0.13672,0.13672,0.00120039,
1628823660000,0.13671,0.13671,0.13671,0.13671,0.1780421499999999,
1628823720000,0.1373,0.13766,0.13767,0.1373,31260.59872196,
1628823780000,0.13765,0.13765,0.13765,0.13765,16.62046583,
1628823840000,0.13818,0.13819,0.13819,0.13818,17939.7,
1628823900000,0.13803,0.13803,0.13803,0.13803,9.27142823,
1628824500000,0.13831,0.13831,0.13831,0.13831,10156.17117,
1628824560000,0.13804,0.13804,0.13804,0.13804,4.34174554,
1628825160000,0.13867,0.13798,0.13867,0.13798,9.74398417,
1628825280000,0.13797,0.13797,0.13797,0.13797,8074.14907,
1628825400000,0.13828,0.13828,0.13828,0.13828,7494.30462,
1628825460000,0.13796,0.13822,0.13825,0.13772,26427.17460822,
1628825520000,0.13828,0.13828,0.13828,0.13828,7746.94282,
1628825580000,0.13772,0.13829,0.13829,0.13772,11230.08558554,
1628825640000,0.13802,0.13802,0.13802,0.13802,18036.0,
1628825820000,0.1383,0.13855,0.13855,0.1383,31582.64453787,
1628825940000,0.13855,0.13855,0.13855,0.13855,8.2046625,
1628826000000,0.13855,0.13855,0.13855,0.13855,0.51791108,
1628826060000,0.13884,0.13886,0.13925,0.13884,31719.62556429,
1628826120000,0.13886,0.13886,0.13886,0.13886,0.59215493,
1628826660000,0.13961,0.13961,0.13961,0.13961,0.00123949,
1628826720000,0.13887,0.13886,0.13887,0.13886,11.47157568,
1628826960000,0.13886,0.13886,0.13886,0.13886,7881.09686842,
1628827500000,0.13914,0.13854,0.13914,0.13854,0.53480151,
1628827740000,0.13887,0.13887,0.13887,0.13887,7922.83891,
1628827860000,0.1385,0.1385,0.1385,0.1385,5.07766127,
1628828040000,0.13887,0.13887,0.13887,0.13887,7982.05303,
1628828280000,0.13858,0.13858,0.13858,0.13858,0.7069698,
1628828880000,0.13914,0.13858,0.13914,0.13858,8.59856761,
1628829420000,0.13914,0.13914,0.13914,0.13914,0.00128285,
1628829540000,0.13855,0.13855,0.13855,0.13855,8.5974345,
1628829660000,0.13903,0.13904,0.13904,0.13903,17819.899999999998,
1628829720000,0.13856,0.13856,0.13856,0.13856,0.9347751,
1628830260000,0.13916,0.13916,0.13916,0.13916,0.00115292,
1628830320000,0.13864,0.13864,0.13864,0.13864,9.2115425,
1628830380000,0.13864,0.13864,0.13864,0.13864,0.15304562,
1628830800000,0.13864,0.13864,0.13864,0.13864,4000.0,
1628831340000,0.13902,0.13842,0.13902,0.13842,5.83773654,
1628831760000,0.13902,0.13896,0.13902,0.13896,8108.93419808,
1628831880000,0.13896,0.13896,0.13896,0.13896,8.31071739,
1628832480000,0.13944,0.13896,0.13944,0.13896,0.00231518,
1628832600000,0.1392,0.1392,0.1392,0.1392,17870.3,
1628832660000,0.13896,0.13896,0.13896,0.13896,3.67295498,
1628833080000,0.13928,0.13898,0.13929,0.13898,18473.76651091,
1628833140000,0.13866,0.13922,0.13928,0.13866,18872.83008095,
1628833200000,0.13865,0.13926,0.13926,0.13865,7671.98915295,
1628833260000,0.13895,0.13895,0.13895,0.13895,7848.20063,
1628833380000,0.13925,0.13894,0.13925,0.13894,15284.73497,
1628833560000,0.13927,0.13871,0.13927,0.13871,15749.77017884,
1628833620000,0.1393,0.13925,0.1393,0.13925,15835.10474,
1628833680000,0.13926,0.1385,0.13927,0.1385,19015.37657214,
1628833740000,0.139,0.13895,0.139,0.13895,15166.3011,
1628833800000,0.13925,0.13871,0.13925,0.13871,15353.57405575,
1628833860000,0.13928,0.13928,0.13928,0.13928,7221.1728,
1628834160000,0.13903,0.139,0.1394,0.139,34764.07994,
1628834220000,0.13874,0.13874,0.13874,0.13874,0.05707458,
1628834460000,0.13903,0.13903,0.13903,0.13903,7597.09101,
1628834580000,0.13878,0.13878,0.13878,0.13878,4.5269733400000005,
1628834940000,0.13878,0.13837,0.13878,0.13837,25757.89653173,
1628835240000,0.13883,0.13884,0.13884,0.13883,11167.89510542,
1628835300000,0.1382,0.1382,0.1382,0.1382,8.14135074,
1628835360000,0.13821,0.1382,0.13821,0.1382,6419.1,
1628835420000,0.13866,0.13867,0.13867,0.13866,11130.7245723,
1628835480000,0.13857,0.13857,0.13857,0.13857,8154.0848,
1628835540000,0.13783,0.13783,0.13783,0.13783,0.71003835,
1628836140000,0.1385,0.1385,0.1385,0.1385,0.00109325,
1628836200000,0.13822,0.13812,0.13888,0.1376,49630.31777775,
1628836320000,0.13828,0.1382,0.13848,0.1382,26336.01356354,
1628836560000,0.13791,0.13791,0.13791,0.13791,5517.686565,
1628836800000,0.13851,0.13851,0.13851,0.13851,1625.866237,
1628836860000,0.13792,0.13792,0.13792,0.13792,9.29839021,
1628836980000,0.13793,0.13793,0.13793,0.13793,193.643789,
1628837040000,0.1379,0.1379,0.1379,0.1379,0.01931841,
1628837100000,0.13851,0.13822,0.13869,0.13822,27250.94584749,
1628837280000,0.13784,0.13784,0.13784,0.13784,0.55901791,
1628837400000,0.13827,0.13797,0.13828,0.13797,11562.55410167,
1628837520000,0.13855,0.13797,0.13855,0.13797,113.51791108,
1628838120000,0.13839,0.13833,0.13839,0.13833,15115.56996,
1628838180000,0.13801,0.13801,0.13801,0.13801,6.35834628,
1628838660000,0.13891,0.13891,0.13891,0.13891,0.00113523,
1628838720000,0.13826,0.13826,0.13826,0.13826,0.00102921,
1628838840000,0.13825,0.13825,0.13825,0.13825,3.93498009,
1628838900000,0.13825,0.13825,0.13825,0.13825,0.462267,
1628839140000,0.13827,0.13826,0.13827,0.13826,17991.6,
1628839200000,0.138,0.138,0.138,0.138,0.15712596,
1628839260000,0.13855,0.138,0.13855,0.138,0.57758163,
1628839320000,0.13855,0.13823,0.13855,0.138,7920.96167641,
1628839380000,0.13827,0.13827,0.13827,0.13827,0.001,
1628839440000,0.13804,0.138,0.13804,0.138,0.002,
1628839740000,0.13802,0.13827,0.13827,0.13802,9225.01005,
1628839800000,0.13824,0.13824,0.13824,0.13824,8277.40463,
1628839860000,0.138,0.138,0.138,0.138,3.83410993,
1628840100000,0.13852,0.13853,0.13853,0.13852,11655.871428630002,
1628840220000,0.138,0.138,0.138,0.138,8.44926789,
1628840280000,0.13827,0.13813,0.13863,0.13813,25665.55537953,
1628840520000,0.13841,0.13813,0.13841,0.13813,26067.40647,
1628840580000,0.138,0.138,0.138,0.138,11585.54512818,
1628840760000,0.13783,0.13783,0.13783,0.13783,17941.0,
1628841240000,0.13829,0.13772,0.13829,0.13772,0.00215629,
1628841300000,0.13772,0.13772,0.13772,0.13772,7.35511436,
1628841540000,0.13813,0.13772,0.13813,0.13772,206.56848121,
1628841720000,0.13772,0.13772,0.13772,0.13772,600.0,
1628841960000,0.13813,0.13765,0.13813,0.13765,576.30595552,
1628842440000,0.13759,0.13759,0.13759,0.13759,100.0,
1628842560000,0.13813,0.13826,0.13826,0.13813,234.18962736,
1628842680000,0.13826,0.13826,0.13826,0.13826,0.250159,
1628842740000,0.13826,0.13826,0.13826,0.13826,2.07455484,
1628843220000,0.13898,0.13898,0.13898,0.13898,0.00106731,
1628843340000,0.13827,0.13827,0.13827,0.13827,1.37702232,
1628843400000,0.13826,0.13826,0.13826,0.13826,0.15941956,
1628843820000,0.13826,0.1389,0.1389,0.13826,1800.0,
1628843880000,0.13826,0.13826,0.13826,0.13826,11.38130045,
1628844360000,0.1388,0.13823,0.1388,0.13823,9.61104548,
1628844900000,0.13892,0.13832,0.13892,0.13832,1.32153401,
1628845080000,0.13832,0.13832,0.13832,0.13832,1.43456871,
1628845440000,0.13832,0.13832,0.13832,0.13832,940.878769,
1628845920000,0.13892,0.13892,0.13892,0.13892,0.00112614,
1628845980000,0.13829,0.13828,0.13829,0.13828,1.14863421,
1628846040000,0.13828,0.13828,0.13828,0.13828,2000.0,
1628846580000,0.13821,0.1382,0.13821,0.1382,8927.843244189999,
1628846640000,0.1382,0.13821,0.13821,0.1382,7990.97716,
1628847180000,0.13821,0.13821,0.13821,0.13821,0.00104178,
1628847420000,0.13821,0.1383,0.1383,0.13821,7535.359329999999,
1628847480000,0.13827,0.13827,0.13827,0.13827,1.43498379,
1628847540000,0.13827,0.13827,0.13827,0.13827,0.11538282,
1628847600000,0.1383,0.1383,0.1383,0.1383,5545.81922403,
1628847660000,0.13855,0.13856,0.13856,0.13855,25181.73881387,
1628847720000,0.1381,0.1381,0.1381,0.1381,4.6131576,
1628848260000,0.13867,0.13867,0.13867,0.13867,0.00107787,
1628848320000,0.13809,0.13809,0.13809,0.13809,1.09384556,
1628848740000,0.13867,0.13868,0.13868,0.13867,9500.0,
1628848800000,0.13878,0.1384,0.13878,0.1384,69.3231751,
1628848860000,0.1384,0.1384,0.1384,0.1384,4.94344271,
1628849400000,0.1384,0.1384,0.1384,0.1384,0.00107197,
1628849940000,0.1384,0.1384,0.1384,0.1384,0.00125268,
1628850000000,0.13878,0.13878,0.13878,0.13878,0.00101281,
1628850060000,0.1384,0.1384,0.1384,0.1384,0.72707291,
1628850240000,0.1384,0.1384,0.1384,0.1384,498.06186743,
1628850840000,0.1384,0.13878,0.13878,0.1384,0.0020603,
1628850900000,0.1384,0.1384,0.1384,0.1384,0.72707291,
1628851440000,0.1384,0.13878,0.13878,0.1384,1063.85664319,
1628851500000,0.1384,0.1384,0.1384,0.1384,16.0,
1628852100000,0.1384,0.1384,0.1384,0.1384,0.00118186,
1628852160000,0.13878,0.1384,0.13878,0.1384,6.030810000000001,
1628852700000,0.1384,0.1384,0.1384,0.1384,0.00110539,
1628853180000,0.13878,0.1384,0.13878,0.1384,6.03202559,
1628853720000,0.13879,0.13879,0.13879,0.13879,0.00118816,
1628853780000,0.1384,0.1384,0.1384,0.1384,6.1878029,
1628854320000,0.13879,0.13879,0.13879,0.13879,0.00111586,
1628854380000,0.13855,0.13855,0.13855,0.13855,6.4752818,
1628854980000,0.13879,0.13879,0.13879,0.13879,0.00124306,
1628855040000,0.1387,0.1387,0.1387,0.1387,3.80375614,
1628855580000,0.1387,0.1387,0.1387,0.1387,0.0011655,
1628855880000,0.13879,0.14043,0.14043,0.13879,38042.39251836,
1628855940000,0.13892,0.13892,0.13892,0.13892,27.06922844,
1628856000000,0.13892,0.13892,0.13892,0.13892,0.4196032,
1628856060000,0.13963,0.13963,0.13963,0.13963,603.958968,
1628856300000,0.13892,0.13892,0.13892,0.13892,1.34515453,
1628856420000,0.13957,0.13957,0.13957,0.13957,1634.0,
1628856480000,0.13892,0.13892,0.13892,0.13892,10.21698215,
1628857020000,0.13957,0.13957,0.13957,0.13957,0.0010357,
1628857080000,0.13893,0.13893,0.13893,0.13893,1.2320089,
1628857140000,0.13892,0.13892,0.13892,0.13892,0.15790844,
1628857620000,0.13947,0.13947,0.13947,0.13947,0.00121634,
1628857680000,0.13892,0.13892,0.13892,0.13892,0.00103352,
1628858280000,0.13952,0.13952,0.13952,0.13952,0.00116953,
1628858340000,0.13897,0.13897,0.13897,0.13897,1.13764654,
1628858400000,0.13927,0.13927,0.13927,0.13927,0.78931491,
1628858580000,0.13927,0.13927,0.13927,0.13927,4.72398764,
1628859060000,0.14001,0.13935,0.14001,0.13935,0.00225714,
1628859120000,0.13935,0.13935,0.13935,0.13935,0.15148958,
1628859180000,0.13935,0.13935,0.13935,0.13935,1.25629482,
1628859660000,0.14001,0.14001,0.14001,0.14001,0.00124569,
1628859720000,0.13936,0.13936,0.13936,0.13936,10.30965276,
1628859780000,0.13935,0.13935,0.13935,0.13935,0.01892397,
1628860320000,0.13989,0.13989,0.13989,0.13989,0.00125759,
1628860380000,0.13931,0.13931,0.13931,0.13931,8.44240627,
1628860920000,0.13989,0.13989,0.13989,0.13989,0.0011853,
1628860980000,0.13931,0.13931,0.13931,0.13931,1.09374574,
1628861580000,0.13989,0.13932,0.13989,0.13932,1.0949576799999998,
1628861640000,0.13931,0.13931,0.13931,0.13931,0.00115011,
1628862120000,0.13989,0.13931,0.13989,0.13931,10.16519568,
1628862720000,0.13989,0.13989,0.13989,0.13989,0.00121556,
1628862780000,0.13932,0.13932,0.13932,0.13932,0.00100195,
1628862900000,0.13931,0.13931,0.13931,0.13931,0.15702557,
1628863440000,0.14037,0.14037,0.14037,0.14037,0.00107175,
1628863560000,0.13969,0.13969,0.13969,0.13969,16.52020393,
1628863680000,0.13968,0.13968,0.13968,0.13968,0.71761801,
1628864280000,0.13968,0.13968,0.13968,0.13968,0.00110242,
1628864820000,0.13968,0.13968,0.13968,0.13968,0.00107725,
1628865120000,0.13968,0.13968,0.13968,0.13968,3500.0,
1628865660000,0.14016,0.14016,0.14016,0.14016,0.00110343,
1628865720000,0.13957,0.13957,0.13957,0.13957,7.47220973,
1628866260000,0.14016,0.13957,0.14016,0.13957,9.19294575,
1628866380000,0.14016,0.14123,0.14123,0.14016,40597.68504001,
1628866500000,0.14016,0.14016,0.14016,0.14016,28.76072059,
1628866980000,0.13992,0.13992,0.13992,0.13992,0.00110896,
1628867520000,0.14029,0.14135,0.14135,0.14029,26513.00210818,
1628867640000,0.14015,0.14015,0.14015,0.14015,24.69284558,
1628868240000,0.14071,0.14071,0.14071,0.14071,0.00122404,
1628868300000,0.14015,0.14015,0.14015,0.14015,9.69796639,
1628868840000,0.14065,0.14065,0.14065,0.14065,0.00126348,
1628868960000,0.14015,0.14015,0.14015,0.14015,7.73042368,
1628869500000,0.14065,0.14065,0.14065,0.14065,0.00109958,
1628869620000,0.14015,0.14015,0.14015,0.14015,8.66259237,
1628870100000,0.141,0.141,0.141,0.141,141.84397,
1628870160000,0.14108,0.14064,0.1412,0.14064,24755.49231661,
1628870220000,0.14064,0.14064,0.14064,0.14064,7.57635387,
1628870460000,0.141,0.141,0.141,0.141,141.76450767,
1628870520000,0.14064,0.14064,0.14064,0.14064,5.53274509,
1628871000000,0.14126,0.14126,0.14126,0.14126,0.00116947,
1628871060000,0.14063,0.14063,0.14063,0.14063,0.0012763,
1628871540000,0.14063,0.14063,0.14063,0.14063,0.00104868,
1628871660000,0.1412,0.1412,0.1412,0.1412,141.64306,
1628871720000,0.14063,0.14063,0.14063,0.14063,1.05492,
1628871960000,0.14119,0.1412,0.1412,0.14119,3073.88766941,
1628872020000,0.14067,0.14067,0.14067,0.14067,8.74839358,
1628872080000,0.14067,0.14067,0.14067,0.14067,0.07430839,
1628872680000,0.14126,0.14126,0.14126,0.14126,0.00122593,
1628872740000,0.14076,0.14076,0.14076,0.14076,1.09116058,
1628872800000,0.14077,0.14077,0.14077,0.14077,1.38524916,
1628872920000,0.14075,0.14075,0.14075,0.14075,0.15380723,
1628873040000,0.14104,0.14104,0.14104,0.14104,7854.68472,
1628873100000,0.14078,0.14078,0.14078,0.14078,0.53686444,
1628873280000,0.14108,0.14108,0.14108,0.14108,7318.71304,
1628873340000,0.14084,0.14084,0.14084,0.14084,1.1677596,
1628873880000,0.14144,0.14087,0.14144,0.14087,1.10818368,
1628874480000,0.1417,0.1417,0.1417,0.1417,0.00102801,
1628874540000,0.14112,0.14112,0.14112,0.14112,1.52808345,
1628875020000,0.14138,0.14084,0.14138,0.14084,0.00222824,
1628875620000,0.14138,0.14084,0.14138,0.14084,8.266088640000001,
1628876220000,0.14138,0.14084,0.14138,0.14084,0.99790281,
1628876760000,0.14138,0.14084,0.14138,0.14084,0.00217534,
1628877360000,0.1412,0.1407,0.1412,0.1407,0.00228495,
1628877900000,0.14119,0.14119,0.14119,0.14119,0.00124102,
1628878020000,0.14055,0.14055,0.14055,0.14055,8.42381376,
1628878560000,0.14141,0.14085,0.14141,0.14085,14.77973794,
1628879100000,0.14141,0.14085,0.14141,0.14085,1.03435586,
1628879640000,0.14141,0.14141,0.14141,0.14141,0.0010959,
1628879700000,0.14085,0.14085,0.14085,0.14085,1.03325709,
1628879760000,0.14085,0.14085,0.14085,0.14085,8.56874432,
1628880300000,0.14141,0.14141,0.14141,0.14141,0.00107286,
1628880480000,0.14087,0.14087,0.14087,0.14087,1.03325709,
1628881080000,0.14119,0.14119,0.14119,0.14119,0.0010534,
1628881140000,0.14071,0.14071,0.14071,0.14071,4.90335861,
1628881680000,0.14055,0.14055,0.14055,0.14055,16.29073413,
1628882280000,0.13979,0.13943,0.13979,0.13943,199.80124428,
1628882820000,0.13978,0.13911,0.13978,0.13911,0.66099557,
1628882880000,0.13911,0.13911,0.13911,0.13911,0.00115378,
1628883240000,0.13912,0.13912,0.13912,0.13912,100.0,
1628883300000,0.13912,0.13912,0.13912,0.13912,0.15747739,
1628883600000,0.13912,0.13912,0.13912,0.13912,0.01898932,
1628884200000,0.13978,0.13978,0.13978,0.13978,0.00115205,
1628884260000,0.13913,0.13913,0.13913,0.13913,10.34368917,
1628884320000,0.13912,0.13912,0.13912,0.13912,0.01898659,
1628884860000,0.13947,0.13947,0.13947,0.13947,0.00125112,
1628884920000,0.13888,0.13888,0.13888,0.13888,5.49748187,
1628885160000,0.1389,0.1389,0.1389,0.1389,100.0,
1628885400000,0.1389,0.1389,0.1389,0.1389,0.35407785,
1628885640000,0.13947,0.13942,0.13947,0.13942,3265.01340479,
1628885700000,0.13942,0.13942,0.13942,0.13942,8.96722238,
1628886180000,0.13956,0.13956,0.13956,0.13956,0.00105393,
1628886300000,0.13952,0.13952,0.13952,0.13952,2.45726904,
1628886900000,0.13956,0.13956,0.13956,0.13956,0.00120175,
1628886960000,0.13934,0.13934,0.13934,0.13934,3000.70157366,
1628887560000,0.13956,0.13956,0.13956,0.13956,0.00129721,
1628887620000,0.13934,0.13934,0.13934,0.13934,0.41576053,
1628888100000,0.13956,0.13934,0.13956,0.13934,3.86480844,
1628888160000,0.13956,0.13956,0.13956,0.13956,19.91756135,
1628888700000,0.14028,0.14028,0.14028,0.14028,0.00100408,
1628888760000,0.13965,0.13964,0.13965,0.13964,2.75891811,
1628889000000,0.13972,0.13972,0.13972,0.13972,50.0,
1628889060000,0.13972,0.13972,0.13972,0.13972,1.09336371,
1628889300000,0.13972,0.13735,0.13972,0.13735,156618.46796,
1628889360000,0.13712,0.13712,0.13712,0.13712,480.497133,
1628889420000,0.13712,0.13712,0.13712,0.13712,214.535759,
1628889480000,0.13646,0.13414,0.13646,0.13414,142281.61701517,
1628889540000,0.1337,0.13391,0.13404,0.1337,44235.89686603,
1628889600000,0.13509,0.13719,0.13719,0.13509,127572.61749646,
1628889660000,0.13719,0.13921,0.13921,0.13719,41117.65627306,
1628889720000,0.13899,0.13889,0.13899,0.13889,21414.44955797,
1628889780000,0.13899,0.13899,0.13899,0.13899,3.27878418,
1628889900000,0.13934,0.13934,0.13934,0.13934,0.19037189,
1628889960000,0.13934,0.13934,0.13934,0.13934,2.07015819,
1628890020000,0.13934,0.13934,0.13934,0.13934,0.66414977,
1628890140000,0.13954,0.13954,0.13954,0.13954,99.90000053,
1628890200000,0.13935,0.13916,0.13935,0.13916,2098.8988383,
1628890260000,0.13916,0.13915,0.13916,0.13915,9634.58805104,
1628890800000,0.1395,0.1395,0.1395,0.1395,0.00100211,
1628890980000,0.13894,0.13894,0.13894,0.13894,0.66262523,
1628891340000,0.13967,0.13904,0.13967,0.13904,521.22418409,
1628891400000,0.13904,0.13904,0.13904,0.13904,1.59896651,
1628891580000,0.13904,0.13903,0.13904,0.13903,10366.23744918,
1628892000000,0.1391,0.13967,0.13967,0.1391,7486.607805330001,
1628892060000,0.13885,0.13885,0.13885,0.13885,10.18063199,
1628892540000,0.13942,0.13942,0.13942,0.13942,0.00122768,
1628892660000,0.13885,0.13885,0.13885,0.13885,1.08208465,
1628893140000,0.13942,0.13942,0.13942,0.13942,0.00121823,
1628893200000,0.13885,0.13885,0.13885,0.13885,9.09515938,
1628893740000,0.13942,0.13942,0.13942,0.13942,0.00109463,
1628893800000,0.13885,0.13885,0.13885,0.13885,1.08208465,
1628894040000,0.13942,0.13942,0.13942,0.13942,345.0,
1628894100000,0.13885,0.13885,0.13885,0.13885,9.09515938,
1628894160000,0.13942,0.13942,0.13942,0.13942,560.0,
1628894280000,0.13888,0.13888,0.13888,0.13888,1.08208465,
1628894460000,0.13942,0.13942,0.13942,0.13942,1414.0,
1628894520000,0.13953,0.13925,0.13986,0.13925,10001.85417272,
1628894580000,0.13993,0.139,0.13993,0.139,12928.59674536,
1628895000000,0.13934,0.13911,0.13934,0.13911,17137.9158597,
1628895060000,0.13911,0.139,0.13911,0.139,7180.53497316,
1628895120000,0.13918,0.13943,0.13943,0.13918,17822.9,
1628895180000,0.13936,0.13936,0.13936,0.13936,0.60630722,
1628895240000,0.13936,0.13936,0.13936,0.13936,5.74058278,
1628895360000,0.13957,0.13937,0.13957,0.13937,9615.68811739,
1628895420000,0.13937,0.13937,0.13937,0.13937,0.01892126,
1628895960000,0.13965,0.13965,0.13965,0.13965,0.00109038,
1628896020000,0.13908,0.13908,0.13908,0.13908,4.44379701,
1628896500000,0.13951,0.13951,0.13951,0.13951,0.00129252,
1628896560000,0.13894,0.13894,0.13894,0.13894,0.81443378,
1628896620000,0.13951,0.13996,0.13996,0.13951,326396.19239748,
1628896680000,0.13998,0.13998,0.13998,0.13998,39362.86434202,
1628896800000,0.14009,0.14009,0.14009,0.14009,60809.93865978,
1628896980000,0.14009,0.14009,0.14009,0.14009,16383.414486,
1628897160000,0.13965,0.13948,0.13977,0.13948,100000.0,
1628897220000,0.1398,0.1398,0.1398,0.1398,7610.90554,
1628897340000,0.13974,0.13959,0.13974,0.13959,48096.0,
1628897460000,0.13957,0.13957,0.13957,0.13957,0.31750478,
1628897580000,0.13957,0.13957,0.13957,0.13957,1.2426764,
1628898180000,0.14,0.1395,0.14,0.1395,0.00220319,
1628898720000,0.14,0.1395,0.14,0.1395,575.0001402,
1628898900000,0.1401,0.14003,0.1401,0.14003,8482.54261717,
1628899080000,0.13994,0.13993,0.13994,0.13993,9100.0,
1628899620000,0.1404,0.1404,0.1404,0.1404,0.00129816,
1628899680000,0.13985,0.13985,0.13985,0.13985,7.38969198,
1628900220000,0.13982,0.13982,0.13982,0.13982,0.00106025,
1628900760000,0.13982,0.13982,0.13982,0.13982,0.00102527,
1628901060000,0.13983,0.13982,0.13983,0.13982,2235.833661,
1628901660000,0.13982,0.13982,0.13982,0.13982,0.00114129,
1628902200000,0.14039,0.14031,0.14049,0.14031,18278.43305867,
1628902260000,0.14031,0.14031,0.14031,0.14031,0.91790028,
1628902560000,0.14081,0.14081,0.14081,0.14081,17299.0205,
1628902620000,0.14074,0.14074,0.14074,0.14074,8.61749425,
1628903220000,0.14099,0.14099,0.14099,0.14099,0.00124619,
1628903280000,0.14063,0.14063,0.14063,0.14063,3.89171092,
1628903760000,0.14061,0.14061,0.14061,0.14061,7672.29505,
1628904300000,0.14062,0.1403,0.14062,0.1403,0.00206377,
1628904780000,0.14062,0.1403,0.14062,0.1403,0.00254213,
1628905380000,0.14062,0.14062,0.14062,0.14062,0.00103031,
1628905440000,0.14034,0.14034,0.14034,0.14034,5.01016045,
1628905500000,0.14034,0.14034,0.14034,0.14034,0.07465832,
1628906040000,0.14068,0.14068,0.14068,0.14068,0.00105321,
1628906160000,0.1403,0.1403,0.1403,0.1403,0.63288154,
1628906760000,0.14068,0.1403,0.14068,0.1403,0.70861527,
1628906820000,0.1403,0.1403,0.1403,0.1403,0.00116885,
1628907360000,0.14068,0.14068,0.14068,0.14068,0.00112714,
1628907420000,0.1403,0.1403,0.1403,0.1403,0.70753986,
1628907540000,0.1403,0.13963,0.1403,0.13963,180000.0,
1628907600000,0.13978,0.13946,0.13978,0.13946,53966.0,
1628908200000,0.14002,0.14002,0.14002,0.14002,0.00118583,
1628908260000,0.13945,0.13945,0.13945,0.13945,1.05391512,
1628908800000,0.13996,0.13996,0.13996,0.13996,0.00111376,
1628908860000,0.13945,0.13945,0.13945,0.13945,0.96029589,
1628909100000,0.13996,0.13996,0.13996,0.13996,7537.90112624,
1628909160000,0.14004,0.14004,0.14004,0.14004,10.29257699,
1628909280000,0.14004,0.14004,0.14004,0.14004,0.15000001,
1628909640000,0.14038,0.14028,0.14057,0.14028,27556.05190773,
1628909700000,0.14028,0.14028,0.14028,0.14028,3.77372112,
1628910240000,0.14029,0.14029,0.14029,0.14029,0.00102617,
1628910360000,0.14028,0.14028,0.14028,0.14028,0.15695818,
1628910960000,0.14029,0.14028,0.14029,0.14028,0.17665405,
1628911500000,0.14029,0.14029,0.14029,0.14029,0.00123136,
1628911620000,0.14028,0.14028,0.14028,0.14028,0.15695818,
1628912100000,0.14028,0.14028,0.14028,0.14028,0.00121936,
1628912640000,0.14086,0.14028,0.14086,0.14028,0.15943891,
1628912820000,0.1403,0.1403,0.1403,0.1403,19.0,
1628912880000,0.14028,0.14028,0.14028,0.14028,0.31389399,
1628912940000,0.14028,0.14028,0.14028,0.14028,0.03734512,
1628913420000,0.14086,0.14086,0.14086,0.14086,0.00125206,
1628913540000,0.14032,0.14031,0.14032,0.14031,10.14543908,
1628914140000,0.14024,0.14024,0.14024,0.14024,0.00116128,
1628914620000,0.14033,0.14033,0.14033,0.14033,0.00127431,
1628914740000,0.13989,0.13989,0.13989,0.13989,1.41262374,
1628915220000,0.14011,0.13956,0.14011,0.13956,3.88198762,
1628915760000,0.14011,0.14011,0.14011,0.14011,0.00115346,
1628915880000,0.13959,0.13959,0.13959,0.13959,1.0336891,
1628915940000,0.13971,0.13971,0.13971,0.13971,0.47567728,
1628916060000,0.13958,0.13958,0.13958,0.13958,1.90066627,
1628916600000,0.14005,0.14005,0.14005,0.14005,0.00122912,
1628916720000,0.13959,0.13959,0.13959,0.13959,7.42673575,
1628916780000,0.13958,0.13958,0.13958,0.13958,0.01886166,
1628917320000,0.14011,0.14011,0.14011,0.14011,0.00108821,
1628917380000,0.13983,0.13983,0.13983,0.13983,17861.6,
1628917440000,0.13954,0.14011,0.14011,0.13954,8278.1673615,
1628917560000,0.14089,0.14085,0.1409,0.14085,15117.45077737,
1628918040000,0.14128,0.14128,0.14128,0.14128,0.00115651,
1628918100000,0.14085,0.14085,0.14085,0.14085,0.00100131,
1628918160000,0.14128,0.1413,0.1413,0.14128,29518.17901,
1628918220000,0.14133,0.14133,0.14133,0.14133,8.27923003,
1628918340000,0.14133,0.14133,0.14133,0.14133,0.05520801,
1628918880000,0.1415,0.1415,0.1415,0.1415,0.00115267,
1628918940000,0.1411,0.1411,0.1411,0.1411,0.00102938,
1628919420000,0.14105,0.14105,0.14105,0.14105,0.00100418,
1628919960000,0.14121,0.14121,0.14121,0.14121,0.00129569,
1628920020000,0.14121,0.14121,0.14121,0.14121,2.48134905,
1628920140000,0.14121,0.14121,0.14121,0.14121,0.29521525,
1628920620000,0.1415,0.1415,0.1415,0.1415,0.0012003,
1628920740000,0.14121,0.14121,0.14121,0.14121,5.01651829,
1628921280000,0.1415,0.1415,0.1415,0.1415,0.00128447,
1628921340000,0.14118,0.14118,0.14118,0.14118,4.48314232,
1628921820000,0.1415,0.1415,0.1415,0.1415,0.00118229,
1628921880000,0.14118,0.14118,0.14118,0.14118,0.58867786,
1628922420000,0.14116,0.14116,0.14116,0.14116,0.00129308,
1628922480000,0.1415,0.14116,0.1415,0.14116,4.94914493,
1628923080000,0.14116,0.1415,0.1415,0.14116,0.00246665,
1628923200000,0.14116,0.14116,0.14116,0.14116,0.62555885,
1628923680000,0.1415,0.1415,0.1415,0.1415,0.0010995,
1628923740000,0.14118,0.14118,0.14118,0.14118,5.25795964,
1628923800000,0.14118,0.14118,0.14118,0.14118,0.03688099,
1628924400000,0.14116,0.14116,0.14116,0.14116,0.00122389,
1628924700000,0.14116,0.14116,0.14116,0.14116,0.764809,
1628925300000,0.1415,0.1415,0.1415,0.1415,0.00111947,
1628925360000,0.14116,0.14116,0.14116,0.14116,5.25795964,
1628925960000,0.1415,0.1415,0.1415,0.1415,0.00106388,
1628926020000,0.14116,0.14116,0.14116,0.14116,5.25795964,
1628926320000,0.14101,0.1403,0.14101,0.14012,47803.45438,
1628926380000,0.1397,0.13757,0.1397,0.13757,179653.89651764,
1628926440000,0.1374,0.13923,0.1396,0.13739,72648.47395698,
1628926560000,0.13923,0.13923,0.13923,0.13923,26.77059035,
1628926620000,0.13923,0.13923,0.13923,0.13923,2.97156587,
1628926740000,0.13984,0.13917,0.13984,0.13917,22928.16151243,
1628927160000,0.13893,0.13893,0.13893,0.13893,12868.98358,
1628927580000,0.13915,0.13952,0.13952,0.13915,20658.33433133,
1628927640000,0.13953,0.13953,0.13953,0.13953,1.11860525,
1628927700000,0.13953,0.13982,0.13982,0.13953,8647.31663577,
1628927760000,0.13988,0.13988,0.13988,0.13988,0.56516184,
1628927820000,0.13988,0.13988,0.13988,0.13988,5.53925359,
1628927880000,0.13988,0.13988,0.13988,0.13988,0.11274147,
1628928420000,0.13973,0.13973,0.13973,0.13973,0.00103409,
1628928480000,0.13989,0.13989,0.13989,0.13989,8114.34383,
1628928540000,0.13986,0.13986,0.13986,0.13986,0.17663794,
1628928780000,0.14025,0.13986,0.14025,0.13986,1.14796565,
1628929320000,0.14025,0.14025,0.14025,0.14025,0.00109204,
1628929440000,0.1399,0.1399,0.1399,0.1399,0.7306772,
1628929560000,0.1399,0.1399,0.1399,0.1399,0.63147356,
1628930100000,0.14025,0.14025,0.14025,0.14025,0.00100942,
1628930160000,0.1399,0.1399,0.1399,0.1399,0.65554846,
1628930220000,0.1399,0.1399,0.1399,0.1399,12523.57162895,
1628930760000,0.14025,0.1399,0.14025,0.1399,5.51233064,
1628931360000,0.13986,0.13986,0.14039,0.13986,0.91921217,
1628931840000,0.14006,0.14006,0.14006,0.14006,8140.05786,
1628931900000,0.14002,0.14009,0.14009,0.14002,2.89894408,
1628932140000,0.14002,0.14002,0.14002,0.14002,0.05618978,
1628932500000,0.14047,0.14175,0.14175,0.14047,73789.1,
1628932560000,0.14221,0.1419,0.14221,0.1419,7598.75437152,
1628932680000,0.1419,0.14185,0.1419,0.14185,7719.38802689,
1628932800000,0.14186,0.14185,0.14186,0.14185,17586.6,
1628933160000,0.14185,0.14185,0.14185,0.14185,7598.0,
1628933700000,0.14139,0.14139,0.14139,0.14139,0.00111676,
1628934180000,0.14145,0.14145,0.14145,0.14145,0.00109311,
1628934240000,0.14205,0.14145,0.14205,0.14145,11.49709938,
1628934540000,0.14145,0.14145,0.14145,0.14145,7240.55236723,
1628934600000,0.14119,0.14119,0.14119,0.14119,497.25,
1628935080000,0.14115,0.14115,0.14115,0.14115,0.00104697,
1628935620000,0.14141,0.14203,0.14203,0.14141,0.00253018,
1628935680000,0.14141,0.14141,0.14141,0.14141,1.61316595,
1628935740000,0.1414,0.1414,0.1414,0.1414,33.20811356,
1628936220000,0.14172,0.14172,0.14172,0.14172,8114.62828,
1628936340000,0.14141,0.14152,0.14152,0.14141,0.74136932,
1628936460000,0.14145,0.14145,0.14145,0.14145,1.69827629,
1628936580000,0.14178,0.14181,0.14181,0.14178,8376.19550207,
1628936640000,0.14149,0.14149,0.14149,0.14149,0.65955351,
1628936760000,0.14178,0.14178,0.14178,0.14178,7507.99995,
1628936880000,0.14156,0.14156,0.14156,0.14156,4.46653645,
1628937240000,0.14208,0.14215,0.14215,0.14208,17484.0,
1628937300000,0.14175,0.14195,0.14215,0.14175,33674.62154,
1628937360000,0.1419,0.1419,0.1419,0.1419,6.70981799,
1628937780000,0.1422,0.14268,0.14268,0.1422,37598.18174901,
1628937840000,0.14253,0.14253,0.14253,0.14253,7255.58691,
1628937900000,0.14199,0.14199,0.14199,0.14199,9.62421846,
1628938200000,0.14216,0.14216,0.14216,0.14216,121.108815,
1628938320000,0.14174,0.14174,0.14174,0.14174,2.91162762,
1628938440000,0.14216,0.14216,0.14216,0.14216,7297.823355,
1628938500000,0.14207,0.14207,0.14207,0.14207,6.44010652,
1628938560000,0.14207,0.14207,0.14207,0.14207,0.60224953,
1628938740000,0.14247,0.14247,0.14247,0.14247,96.516825,
1628938860000,0.142,0.142,0.142,0.142,0.72625901,
1628939220000,0.14247,0.14246,0.14247,0.14246,17625.330985,
1628939280000,0.14218,0.14218,0.14218,0.14218,7.02570889,
1628939340000,0.14219,0.14218,0.14219,0.14218,9784.13002989,
1628939880000,0.14192,0.14192,0.14192,0.14192,0.00117258,
1628940300000,0.14224,0.14224,0.14224,0.14224,7908.81241,
1628940360000,0.14223,0.14223,0.14223,0.14223,7794.25266,
1628940480000,0.14195,0.14195,0.14195,0.14195,0.56439638,
1628940600000,0.14253,0.14199,0.14253,0.14199,399.57232785,
1628940720000,0.14254,0.14254,0.14254,0.14254,8007.13442,
1628940780000,0.14241,0.14241,0.14241,0.14241,0.56194146,
1628940840000,0.14235,0.14235,0.14235,0.14235,6.41748184,
1628941020000,0.14321,0.14321,0.14321,0.14321,17.17073612,
1628941140000,0.14399,0.144,0.144,0.14399,17237.7,
1628941200000,0.14366,0.14339,0.14366,0.14339,7869.13560112,
1628941560000,0.14392,0.14378,0.14392,0.14378,7514.30025618,
1628941620000,0.14378,0.14378,0.14378,0.14378,0.94382874,
1628941800000,0.14405,0.14405,0.14405,0.14405,17293.8,
1628941860000,0.14379,0.14379,0.14379,0.14379,4.04555478,
1628941980000,0.14416,0.14391,0.14416,0.14391,7644.49007247,
1628942100000,0.14391,0.14391,0.14391,0.14391,62.247792,
1628942400000,0.1439,0.1439,0.1439,0.1439,7721.54352,
1628943000000,0.14411,0.14411,0.14411,0.14411,0.00114259,
1628943060000,0.14363,0.14362,0.14363,0.14362,3.50095449,
1628943660000,0.1436,0.1436,0.1436,0.1436,0.00111346,
1628944260000,0.14411,0.14411,0.14411,0.14411,0.00116786,
1628944380000,0.14364,0.14364,0.14364,0.14364,0.90568873,
1628944500000,0.14377,0.14377,0.14377,0.14377,0.5991613,
1628944560000,0.14411,0.14411,0.14411,0.14411,7798.48838955,
1628944620000,0.14389,0.14389,0.14389,0.14389,7.01523053,
1628944740000,0.1439,0.14485,0.14488,0.1439,18617.05868138,
1628944860000,0.14513,0.1449,0.14579,0.1449,52103.91943978,
1628945160000,0.14491,0.14491,0.14491,0.14491,0.73603205,
1628945280000,0.14511,0.14511,0.14511,0.14511,0.01750212,
1628945400000,0.14511,0.14511,0.14511,0.14511,3.28818603,
1628945940000,0.14543,0.14538,0.1456,0.14538,17010.26557369,
1628946000000,0.14538,0.14538,0.14538,0.14538,0.47034779,
1628946060000,0.14583,0.14583,0.14583,0.14583,7878.63904,
1628946120000,0.14556,0.1454,0.14556,0.1454,17098.12686902,
1628946240000,0.145,0.145,0.145,0.145,8092.24914,
1628946840000,0.14528,0.14528,0.14528,0.14528,0.00119014,
1628946900000,0.14477,0.14476,0.14477,0.14476,4.59521971,
1628947260000,0.14528,0.1457,0.1457,0.14528,37406.9,
1628947320000,0.14562,0.14562,0.14562,0.14562,1.63786111,
1628947380000,0.14562,0.14562,0.14562,0.14562,12.6049885,
1628947560000,0.14562,0.14525,0.14562,0.14525,25757.5597,
1628947800000,0.1456,0.1456,0.1456,0.1456,8394.39323,
1628947860000,0.14502,0.14502,0.14502,0.14502,0.60820204,
1628947920000,0.14587,0.14534,0.14587,0.14534,18043.36434446,
1628948040000,0.14567,0.14567,0.14567,0.14567,7889.02079,
1628948100000,0.14535,0.14535,0.14535,0.14535,0.57281715,
1628948220000,0.14535,0.14534,0.14535,0.14534,9403.61260618,
1628948400000,0.14568,0.14568,0.14568,0.14568,7340.1555,
1628948460000,0.14517,0.14517,0.14517,0.14517,698.60426245,
1628948640000,0.14563,0.14554,0.14563,0.14554,14778.85094,
1628948700000,0.14506,0.1455,0.14562,0.14506,93593.93752271,
1628948760000,0.1455,0.14556,0.14556,0.14531,27050.71555199,
1628948820000,0.14515,0.14515,0.14515,0.14515,0.29168841,
1628948880000,0.14562,0.14504,0.1459,0.14504,32854.44843267,
1628949300000,0.14559,0.14529,0.14559,0.14529,16506.917191239998,
1628949420000,0.14532,0.14532,0.14532,0.14532,0.4359873,
1628949540000,0.14531,0.14531,0.14531,0.14531,0.05221767,
1628949600000,0.14597,0.14597,0.14597,0.14597,1669.0,
1628949720000,0.14531,0.14531,0.14531,0.14531,9.61387405,
1628950260000,0.14549,0.14549,0.14549,0.14549,0.00105083,
1628950320000,0.14612,0.14539,0.14697,0.14539,99251.30971685,
1628950380000,0.14505,0.14505,0.14505,0.14505,1.16996683,
1628950440000,0.14507,0.14506,0.14507,0.14506,11965.564747,
1628950800000,0.1454,0.14809,0.14809,0.1454,99800.12998272,
1628950860000,0.14714,0.14714,0.14714,0.14714,47.16087128,
1628951460000,0.14786,0.14793,0.14808,0.14786,1.21862246,
1628951520000,0.14793,0.14793,0.14793,0.14793,11.21382273,
1628951760000,0.14767,0.14767,0.14767,0.14767,0.11761113,
1628952240000,0.1481,0.14767,0.1481,0.14767,0.7236604900000001,
1628952300000,0.14767,0.14767,0.14767,0.14767,6.07483835,
1628952780000,0.1481,0.1481,0.1481,0.1481,0.00111916,
1628952900000,0.14771,0.1477,0.14771,0.1477,6.79740592,
1628953440000,0.1481,0.1481,0.1481,0.1481,0.00127192,
1628953560000,0.14764,0.14754,0.14764,0.14754,24090.47147462,
1628953680000,0.14771,0.14771,0.14771,0.14771,175000.0,
1628953740000,0.14771,0.14771,0.14771,0.14771,672.0,
1628953800000,0.14736,0.14771,0.14771,0.14736,3.37681607,
1628954400000,0.14798,0.14798,0.14798,0.14798,0.00116039,
1628954460000,0.14736,0.14735,0.14736,0.14735,0.45510954,
1628955000000,0.14798,0.14798,0.14798,0.14798,0.00109203,
1628955060000,0.14736,0.14736,0.14736,0.14736,1.06180491,
1628955120000,0.14735,0.14735,0.14735,0.14735,0.14229311,
1628955720000,0.14799,0.14738,0.14799,0.14738,0.00243685,
1628955840000,0.14737,0.14737,0.14737,0.14737,0.47758937,
1628956020000,0.14809,0.1481,0.1481,0.14809,13294.877165999998,
1628956080000,0.14803,0.14803,0.14803,0.14803,10.43449694,
1628956500000,0.1484,0.1484,0.1484,0.1484,7159.08488,
1628956560000,0.14815,0.14815,0.14815,0.14815,0.61897831,
1628956740000,0.14796,0.14796,0.14796,0.14796,151.69061008,
1628957220000,0.14862,0.14802,0.14862,0.14802,10.37746537,
1628957400000,0.14862,0.14824,0.14877,0.14824,26863.2286965,
1628957460000,0.14811,0.14811,0.14811,0.14811,0.36846328,
1628957520000,0.14811,0.14811,0.14811,0.14811,1.26838569,
1628958000000,0.14859,0.14859,0.14859,0.14859,0.00119575,
1628958120000,0.14802,0.14801,0.14802,0.14801,7.54031269,
1628958420000,0.1486,0.1486,0.1486,0.1486,177.0,
1628958540000,0.14802,0.14802,0.14802,0.14802,8.2881146,
1628958660000,0.14801,0.14801,0.14801,0.14801,0.01677436,
1628959200000,0.1486,0.1486,0.1486,0.1486,0.00108981,
1628959320000,0.14824,0.14824,0.14824,0.14824,8.67335224,
1628959860000,0.14822,0.14873,0.14873,0.14822,0.00214951,
1628959920000,0.14826,0.14826,0.14826,0.14826,6.86666246,
1628959980000,0.14826,0.14826,0.14826,0.14826,0.03344244,
1628960220000,0.14874,0.14874,0.14874,0.14874,0.001,
1628960340000,0.14827,0.14874,0.14875,0.14822,10088.74388476,
1628960460000,0.14827,0.14827,0.14827,0.14827,0.78320263,
1628960520000,0.14874,0.14822,0.14886,0.14822,0.003,
1628960580000,0.14822,0.14822,0.14822,0.14822,0.0011,
1628961120000,0.14822,0.14822,0.14822,0.14822,0.00114482,
1628961540000,0.14869,0.14847,0.14869,0.14847,24362.71982,
1628961600000,0.14833,0.14833,0.14833,0.14833,3.51000791,
1628961660000,0.14833,0.14833,0.14833,0.14833,0.18387142,
1628962260000,0.14897,0.14897,0.14897,0.14897,0.00128203,
1628962320000,0.14839,0.14838,0.14839,0.14838,0.92701314,
1628962440000,0.14897,0.14938,0.1495,0.14897,12303.35864772,
1628962740000,0.14902,0.14902,0.14902,0.14902,13.93945461,
1628963340000,0.14968,0.14968,0.14968,0.14968,0.00114023,
1628963400000,0.14902,0.14901,0.14902,0.14901,10.22957723,
1628963880000,0.14982,0.14921,0.14982,0.1492,12.544864,
1628964180000,0.14921,0.14887,0.14921,0.14887,26718.60205,
1628964240000,0.14827,0.14827,0.14827,0.14827,16836.8,
1628964300000,0.14804,0.14791,0.14804,0.14791,16891.8,
1628964600000,0.14726,0.14726,0.14726,0.14726,16173.01767,
1628964840000,0.14699,0.14699,0.14699,0.14699,19713.80704,
1628965140000,0.1468,0.1468,0.1468,0.1468,14782.18892,
1628965620000,0.14664,0.14664,0.14664,0.14664,0.0012087,
1628966160000,0.1469,0.1469,0.1469,0.1469,0.00115502,
1628966220000,0.14651,0.14651,0.14651,0.14651,0.44356415,
1628966700000,0.14688,0.1464,0.14688,0.1464,0.63293404,
1628966820000,0.14669,0.14669,0.14669,0.14669,32.0,
1628966940000,0.14626,0.14626,0.14626,0.14626,4.17224705,
1628967480000,0.1469,0.14663,0.1469,0.14663,1.0958131400000002,
1628967540000,0.14656,0.14656,0.14656,0.14656,5.33048744,
1628967840000,0.14673,0.14673,0.14673,0.14673,17025.7,
1628967900000,0.14656,0.14656,0.14656,0.14656,2.44246389,
1628968440000,0.14702,0.14702,0.14702,0.14702,0.00124606,
1628968500000,0.14655,0.14655,0.14655,0.14655,0.78455483,
1628969040000,0.14702,0.14702,0.14702,0.14702,0.00126652,
1628969160000,0.14662,0.14662,0.14662,0.14662,1.8082087,
1628969460000,0.14702,0.14702,0.14702,0.14702,7577.91779742,
1628969520000,0.14694,0.14694,0.14694,0.14694,0.68194241,
1628969580000,0.14692,0.14692,0.14692,0.14692,4.5891297,
1628970120000,0.14757,0.14757,0.14757,0.14757,0.00121783,
1628970180000,0.14693,0.14693,0.14693,0.14693,1.10177193,
1628970240000,0.14715,0.14715,0.14715,0.14715,0.14312721,
1628970300000,0.14725,0.14725,0.14725,0.14725,3.14387695,
1628970420000,0.14725,0.14725,0.14725,0.14725,1.42592943,
1628970480000,0.14725,0.14725,0.14725,0.14725,8039.61475362,
1628971080000,0.14727,0.14727,0.14727,0.14727,0.31992192,
1628971680000,0.1473,0.14759,0.14759,0.1473,0.0024032999999999,
1628971740000,0.1473,0.1473,0.1473,0.1473,0.96833356,
1628972100000,0.1473,0.1472,0.14733,0.1472,15712.65616077,
1628972160000,0.14761,0.14761,0.14761,0.14761,7845.39199,
1628972220000,0.14729,0.14729,0.14729,0.14729,0.47316042,
1628972280000,0.14729,0.14729,0.14729,0.14729,1.28255217,
1628972820000,0.14788,0.14788,0.14788,0.14788,0.00100088,
1628972880000,0.1473,0.14729,0.1473,0.14729,9.36464656,
1628973060000,0.14784,0.14784,0.14784,0.14784,16898.9,
1628973120000,0.14756,0.14756,0.14756,0.14756,7.80388889,
1628973180000,0.14756,0.14756,0.14756,0.14756,0.92822833,
1628973480000,0.14769,0.14769,0.14769,0.14769,5000.0,
1628973540000,0.14769,0.14769,0.14769,0.14769,1.84305044,
1628973660000,0.14769,0.14769,0.14769,0.14769,0.2192204,
1628974020000,0.148,0.14774,0.148,0.14774,14.4661131,
1628974620000,0.14774,0.14774,0.14774,0.14774,0.00126866,
1628975160000,0.14784,0.14784,0.14784,0.14784,1.41569584,
1628975340000,0.14784,0.14784,0.14784,0.14784,0.16825474,
1628975880000,0.14844,0.14785,0.14844,0.14785,1.00577683,
1628975940000,0.14784,0.14784,0.14784,0.14784,0.14135147,
1628976480000,0.14849,0.14785,0.14849,0.14785,0.00220565,
1628976540000,0.14784,0.14784,0.14784,0.14784,1.08813189,
1628977080000,0.14818,0.14818,0.14818,0.14818,0.00108494,
1628977140000,0.14818,0.14818,0.14818,0.14818,4.79524694,
1628977320000,0.1482,0.1482,0.1482,0.1482,0.57036742,
1628977380000,0.14817,0.14817,0.14817,0.14817,0.28138815,
1628977860000,0.14877,0.14877,0.14877,0.14877,0.00114704,
1628977920000,0.14818,0.14818,0.14818,0.14818,1.00030618,
